PE FL                   SPECTRUM    ASCII       PEDS        1.60        
  -1
CDSRT#11.SP
02/03/22
00:49:20.00
02/03/22
00:51:34.00


600.000000
1









LS55
365.00
5.00
5.00
SCAN
1
20
100
100
0
100
0
1
0
1
7
ON
550 310 
1 0 0
#HDR
-1
-1
#GR
NM

0.00002384185791015625
0.0
390.000000
0.500000
421
8
94.050356
27.313000
#DATA
390.000000	27.313000 
390.500000	28.533712 
391.000000	29.592462 
391.500000	30.491825 
392.000000	31.301613 
392.500000	32.001348 
393.000000	32.588780 
393.500000	33.203878 
394.000000	33.914560 
394.500000	34.760674 
395.000000	35.667439 
395.500000	36.546621 
396.000000	37.333795 
396.500000	38.213969 
397.000000	39.256128 
397.500000	40.327287 
398.000000	41.233977 
398.500000	42.011507 
399.000000	42.843083 
399.500000	43.714848 
400.000000	44.591401 
400.500000	45.535757 
401.000000	46.615962 
401.500000	47.686257 
402.000000	48.576522 
402.500000	49.408651 
403.000000	50.314969 
403.500000	51.375628 
404.000000	52.358696 
404.500000	53.341166 
405.000000	54.283643 
405.500000	55.393121 
406.000000	56.459106 
406.500000	57.458446 
407.000000	58.340939 
407.500000	59.216272 
408.000000	60.109575 
408.500000	60.952712 
409.000000	61.742371 
409.500000	62.559613 
410.000000	63.509318 
410.500000	64.509348 
411.000000	65.510863 
411.500000	66.439727 
412.000000	67.247901 
412.500000	68.023409 
413.000000	68.774272 
413.500000	69.672575 
414.000000	70.640325 
414.500000	71.575303 
415.000000	72.328598 
415.500000	73.030916 
416.000000	73.766265 
416.500000	74.645984 
417.000000	75.549363 
417.500000	76.327227 
418.000000	77.018393 
418.500000	77.711530 
419.000000	78.462227 
419.500000	79.115303 
420.000000	79.705060 
420.500000	80.299590 
421.000000	81.079068 
421.500000	81.967386 
422.000000	82.856128 
422.500000	83.449704 
423.000000	83.852651 
423.500000	84.249962 
424.000000	84.930810 
424.500000	85.569030 
425.000000	86.119128 
425.500000	86.541886 
426.000000	87.108992 
426.500000	87.609272 
427.000000	88.004871 
427.500000	88.240212 
428.000000	88.626121 
428.500000	89.108295 
429.000000	89.571674 
429.500000	89.980901 
430.000000	90.460939 
430.500000	90.931916 
431.000000	91.209053 
431.500000	91.355727 
432.000000	91.560636 
432.500000	91.978340 
433.000000	92.388424 
433.500000	92.724916 
434.000000	92.864159 
434.500000	93.027333 
435.000000	93.136250 
435.500000	93.264863 
436.000000	93.373318 
436.500000	93.593340 
437.000000	93.838159 
437.500000	93.930378 
438.000000	93.859598 
438.500000	93.743189 
439.000000	93.795083 
439.500000	93.871901 
440.000000	94.012984 
440.500000	94.050356 
441.000000	93.969393 
441.500000	93.730401 
442.000000	93.403893 
442.500000	93.218515 
443.000000	93.226696 
443.500000	93.358166 
444.000000	93.360772 
444.500000	93.158871 
445.000000	92.794325 
445.500000	92.529378 
446.000000	92.404121 
446.500000	92.308318 
447.000000	91.988128 
447.500000	91.549045 
448.000000	91.166045 
448.500000	90.991499 
449.000000	90.822704 
449.500000	90.716356 
450.000000	90.501909 
450.500000	90.215984 
451.000000	89.763378 
451.500000	89.345719 
452.000000	89.030295 
452.500000	88.776090 
453.000000	88.485613 
453.500000	88.187666 
454.000000	87.829962 
454.500000	87.407560 
455.000000	86.967871 
455.500000	86.616136 
456.000000	86.232651 
456.500000	85.803492 
457.000000	85.278712 
457.500000	84.887454 
458.000000	84.548340 
458.500000	84.241393 
459.000000	83.890106 
459.500000	83.602795 
460.000000	83.263719 
460.500000	82.803848 
461.000000	82.330037 
461.500000	81.952363 
462.000000	81.655045 
462.500000	81.263931 
463.000000	80.804803 
463.500000	80.362075 
464.000000	80.007696 
464.500000	79.658553 
465.000000	79.358560 
465.500000	79.062946 
466.000000	78.810462 
466.500000	78.542462 
467.000000	78.139909 
467.500000	77.586886 
468.000000	77.062772 
468.500000	76.676022 
469.000000	76.507393 
469.500000	76.353106 
470.000000	76.109371 
470.500000	75.720174 
471.000000	75.259212 
471.500000	74.758810 
472.000000	74.451931 
472.500000	74.262803 
473.000000	74.118575 
473.500000	73.817393 
474.000000	73.397515 
474.500000	72.947113 
475.000000	72.599401 
475.500000	72.380348 
476.000000	72.286015 
476.500000	72.106977 
477.000000	71.814522 
477.500000	71.500810 
478.000000	71.231227 
478.500000	70.935583 
479.000000	70.677666 
479.500000	70.496159 
480.000000	70.323083 
480.500000	70.088848 
481.000000	69.863409 
481.500000	69.663712 
482.000000	69.350174 
482.500000	68.866499 
483.000000	68.448946 
483.500000	68.301333 
484.000000	68.252992 
484.500000	68.134992 
485.000000	67.930772 
485.500000	67.721121 
486.000000	67.477409 
486.500000	67.245068 
487.000000	67.020462 
487.500000	66.850204 
488.000000	66.653499 
488.500000	66.525113 
489.000000	66.415151 
489.500000	66.310977 
490.000000	66.077265 
490.500000	65.884803 
491.000000	65.666712 
491.500000	65.516765 
492.000000	65.305409 
492.500000	65.218250 
493.000000	65.135060 
493.500000	65.010113 
494.000000	64.697196 
494.500000	64.369772 
495.000000	64.084621 
495.500000	63.938409 
496.000000	63.730325 
496.500000	63.634856 
497.000000	63.523181 
497.500000	63.354749 
498.000000	62.984750 
498.500000	62.597257 
499.000000	62.361696 
499.500000	62.320431 
500.000000	62.260083 
500.500000	62.113560 
501.000000	61.995280 
501.500000	61.926227 
502.000000	61.734287 
502.500000	61.399310 
503.000000	60.987780 
503.500000	60.801765 
504.000000	60.738696 
504.500000	60.759507 
505.000000	60.830310 
505.500000	60.819742 
506.000000	60.554878 
506.500000	60.065810 
507.000000	59.712462 
507.500000	59.660469 
508.000000	59.766545 
508.500000	59.721234 
509.000000	59.533954 
509.500000	59.306909 
510.000000	59.096689 
510.500000	58.902030 
511.000000	58.753803 
511.500000	58.684689 
512.000000	58.660598 
512.500000	58.565136 
513.000000	58.336287 
513.500000	58.008871 
514.000000	57.699530 
514.500000	57.491068 
515.000000	57.409265 
515.500000	57.369356 
516.000000	57.332280 
516.500000	57.184045 
517.000000	56.986159 
517.500000	56.788000 
518.000000	56.595265 
518.500000	56.404477 
519.000000	56.270757 
519.500000	56.184212 
520.000000	55.990090 
520.500000	55.698803 
521.000000	55.424166 
521.500000	55.277742 
522.000000	55.159030 
522.500000	55.039333 
523.000000	54.943060 
523.500000	54.838242 
524.000000	54.622189 
524.500000	54.390469 
525.000000	54.221840 
525.500000	54.097909 
526.000000	53.841780 
526.500000	53.431969 
527.000000	53.093446 
527.500000	52.992803 
528.000000	53.076886 
528.500000	53.114931 
529.000000	53.012734 
529.500000	52.798098 
530.000000	52.600765 
530.500000	52.462484 
531.000000	52.345901 
531.500000	52.230393 
532.000000	52.085583 
532.500000	51.843409 
533.000000	51.480636 
533.500000	51.172590 
534.000000	50.991810 
534.500000	50.950590 
535.000000	50.844666 
535.500000	50.652492 
536.000000	50.422848 
536.500000	50.219590 
537.000000	49.997015 
537.500000	49.802136 
538.000000	49.680439 
538.500000	49.621560 
539.000000	49.567568 
539.500000	49.356803 
540.000000	49.084477 
540.500000	48.791984 
541.000000	48.564053 
541.500000	48.417750 
542.000000	48.370151 
542.500000	48.350810 
543.000000	48.290462 
543.500000	47.968893 
544.000000	47.587287 
544.500000	47.302840 
545.000000	47.328492 
545.500000	47.332757 
546.000000	47.185090 
546.500000	46.818901 
547.000000	46.547204 
547.500000	46.351750 
548.000000	46.245727 
548.500000	46.155409 
549.000000	46.017212 
549.500000	45.833575 
550.000000	45.649742 
550.500000	45.548340 
551.000000	45.507939 
551.500000	45.387325 
552.000000	45.175901 
552.500000	44.842568 
553.000000	44.569492 
553.500000	44.349545 
554.000000	44.263196 
554.500000	44.139045 
555.000000	44.028674 
555.500000	43.850439 
556.000000	43.740553 
556.500000	43.586378 
557.000000	43.462272 
557.500000	43.223530 
558.000000	42.969492 
558.500000	42.747045 
559.000000	42.653181 
559.500000	42.535015 
560.000000	42.350507 
560.500000	42.131174 
561.000000	41.913583 
561.500000	41.707787 
562.000000	41.600818 
562.500000	41.578712 
563.000000	41.560545 
563.500000	41.339439 
564.000000	41.095249 
564.500000	40.881037 
565.000000	40.822159 
565.500000	40.733893 
566.000000	40.694166 
566.500000	40.567219 
567.000000	40.391886 
567.500000	40.140068 
568.000000	39.956303 
568.500000	39.788348 
569.000000	39.601212 
569.500000	39.394825 
570.000000	39.272696 
570.500000	39.239666 
571.000000	39.151871 
571.500000	39.034030 
572.000000	38.846719 
572.500000	38.673045 
573.000000	38.479106 
573.500000	38.253939 
574.000000	37.958924 
574.500000	37.663946 
575.000000	37.533234 
575.500000	37.540409 
576.000000	37.591037 
576.500000	37.513674 
577.000000	37.407090 
577.500000	37.182083 
578.000000	36.938477 
578.500000	36.687818 
579.000000	36.601333 
579.500000	36.581757 
580.000000	36.569962 
580.500000	36.454477 
581.000000	36.303045 
581.500000	36.018219 
582.000000	35.734469 
582.500000	35.499045 
583.000000	35.338128 
583.500000	35.172151 
584.000000	35.003810 
584.500000	34.822856 
585.000000	34.667257 
585.500000	34.599053 
586.000000	34.615189 
586.500000	34.580227 
587.000000	34.380037 
587.500000	34.122272 
588.000000	34.000462 
588.500000	33.909992 
589.000000	33.749409 
589.500000	33.487356 
590.000000	33.312227 
590.500000	33.223583 
591.000000	33.233598 
591.500000	33.243174 
592.000000	33.167522 
592.500000	32.989340 
593.000000	32.774590 
593.500000	32.608825 
594.000000	32.462939 
594.500000	32.305992 
595.000000	32.156075 
595.500000	32.017909 
596.000000	31.884924 
596.500000	31.729446 
597.000000	31.558159 
597.500000	31.368128 
598.000000	31.217234 
598.500000	31.118295 
599.000000	30.978143 
599.500000	30.685704 
600.000000	30.259999 

