PE FL                   SPECTRUM    ASCII       PEDS        1.60        
  -1
CDSRT#13.SP
02/03/22
00:54:12.00
02/03/22
00:55:50.00


400.000000
1









LS55
450.00
5.00
5.00
SCAN
1
20
100
100
0
100
0
0
0
1
7
ON
420 400 
1 0 0
#HDR
-1
-1
#GR
NM

0.00002384185791015625
0.0
250.000000
0.500000
301
8
91.397106
7.285999
#DATA
250.000000	7.285999  
250.500000	7.534931  
251.000000	7.700378  
251.500000	7.803833  
252.000000	7.914719  
252.500000	8.056409  
253.000000	8.157083  
253.500000	8.216007  
254.000000	8.274871  
254.500000	8.349227  
255.000000	8.407446  
255.500000	8.430121  
256.000000	8.444810  
256.500000	8.503833  
257.000000	8.587727  
257.500000	8.690893  
258.000000	8.742969  
258.500000	8.787939  
259.000000	8.843371  
259.500000	8.936772  
260.000000	8.991696  
260.500000	9.027757  
261.000000	9.094848  
261.500000	9.255484  
262.000000	9.463621  
262.500000	9.672030  
263.000000	9.804659  
263.500000	9.864795  
264.000000	9.936909  
264.500000	10.122181 
265.000000	10.318750 
265.500000	10.402553 
266.000000	10.364310 
266.500000	10.362431 
267.000000	10.459318 
267.500000	10.647030 
268.000000	10.817795 
268.500000	10.911113 
269.000000	10.892242 
269.500000	10.862545 
270.000000	10.904886 
270.500000	11.008643 
271.000000	11.088348 
271.500000	11.107439 
272.000000	11.078106 
272.500000	11.080893 
273.000000	11.167212 
273.500000	11.334409 
274.000000	11.405007 
274.500000	11.328969 
275.000000	11.175560 
275.500000	11.108250 
276.000000	11.152174 
276.500000	11.229356 
277.000000	11.249931 
277.500000	11.196825 
278.000000	11.109893 
278.500000	11.080287 
279.000000	11.134090 
279.500000	11.175681 
280.000000	11.100159 
280.500000	10.970825 
281.000000	10.854386 
281.500000	10.802840 
282.000000	10.744909 
282.500000	10.719159 
283.000000	10.764803 
283.500000	10.822636 
284.000000	10.799196 
284.500000	10.707863 
285.000000	10.620992 
285.500000	10.550015 
286.000000	10.465416 
286.500000	10.375454 
287.000000	10.338303 
287.500000	10.300530 
288.000000	10.238643 
288.500000	10.145621 
289.000000	10.102265 
289.500000	10.057090 
290.000000	10.022568 
290.500000	9.934454  
291.000000	9.897053  
291.500000	9.884439  
292.000000	9.911583  
292.500000	9.940522  
293.000000	10.026325 
293.500000	10.193234 
294.000000	10.419681 
294.500000	10.730227 
295.000000	11.109037 
295.500000	11.606060 
296.000000	12.192090 
296.500000	12.968727 
297.000000	13.979166 
297.500000	15.287386 
298.000000	16.835772 
298.500000	18.607666 
299.000000	20.573045 
299.500000	22.863825 
300.000000	25.504053 
300.500000	28.353196 
301.000000	31.160159 
301.500000	33.884765 
302.000000	36.547704 
302.500000	39.148856 
303.000000	41.497537 
303.500000	43.540386 
304.000000	45.359196 
304.500000	47.156310 
305.000000	48.913939 
305.500000	50.419393 
306.000000	51.603280 
306.500000	52.536628 
307.000000	53.406545 
307.500000	54.146068 
308.000000	54.668386 
308.500000	54.931606 
309.000000	55.133007 
309.500000	55.210409 
310.000000	55.159530 
310.500000	54.914310 
311.000000	54.646795 
311.500000	54.328606 
312.000000	53.998825 
312.500000	53.585772 
313.000000	53.220053 
313.500000	52.908234 
314.000000	52.623204 
314.500000	52.268424 
315.000000	51.774356 
315.500000	51.271128 
316.000000	50.841840 
316.500000	50.503318 
317.000000	50.071113 
317.500000	49.615234 
318.000000	49.220318 
318.500000	48.996250 
319.000000	48.896628 
319.500000	48.829515 
320.000000	48.605090 
320.500000	48.353378 
321.000000	48.241628 
321.500000	48.309537 
322.000000	48.343166 
322.500000	48.327045 
323.000000	48.291151 
323.500000	48.312590 
324.000000	48.239257 
324.500000	48.241712 
325.000000	48.335772 
325.500000	48.652022 
326.000000	48.962393 
326.500000	49.349780 
327.000000	49.588196 
327.500000	49.866863 
328.000000	50.102704 
328.500000	50.375113 
329.000000	50.656075 
329.500000	51.058363 
330.000000	51.616015 
330.500000	52.156250 
331.000000	52.644765 
331.500000	53.166628 
332.000000	53.855507 
332.500000	54.512825 
333.000000	55.045560 
333.500000	55.443075 
334.000000	55.933560 
334.500000	56.560765 
335.000000	57.191174 
335.500000	57.821515 
336.000000	58.492265 
336.500000	59.183977 
337.000000	59.750545 
337.500000	60.285454 
338.000000	60.843439 
338.500000	61.489303 
339.000000	62.046666 
339.500000	62.603984 
340.000000	63.177318 
340.500000	63.658424 
341.000000	64.089318 
341.500000	64.601962 
342.000000	65.271204 
342.500000	65.841022 
343.000000	66.361075 
343.500000	66.886030 
344.000000	67.569431 
344.500000	68.176636 
345.000000	68.765659 
345.500000	69.433227 
346.000000	70.218007 
346.500000	71.007530 
347.000000	71.788378 
347.500000	72.545257 
348.000000	73.241378 
348.500000	73.903037 
349.000000	74.567977 
349.500000	75.267416 
350.000000	76.010462 
350.500000	76.728840 
351.000000	77.464287 
351.500000	78.060446 
352.000000	78.632810 
352.500000	79.229477 
353.000000	80.049780 
353.500000	80.954575 
354.000000	81.867431 
354.500000	82.541431 
355.000000	83.053075 
355.500000	83.470909 
356.000000	84.044651 
356.500000	84.723363 
357.000000	85.332992 
357.500000	85.806249 
358.000000	86.271621 
358.500000	86.843924 
359.000000	87.401234 
359.500000	88.001371 
360.000000	88.602833 
360.500000	89.249053 
361.000000	89.665969 
361.500000	89.882977 
362.000000	89.993674 
362.500000	90.205946 
363.000000	90.714098 
363.500000	91.184083 
364.000000	91.336219 
364.500000	91.183977 
365.000000	91.232075 
365.500000	91.397106 
366.000000	91.383181 
366.500000	91.127613 
367.000000	90.971666 
367.500000	90.891098 
368.000000	90.628469 
368.500000	90.313265 
369.000000	90.190272 
369.500000	90.055477 
370.000000	89.646575 
370.500000	89.073590 
371.000000	88.677257 
371.500000	88.457977 
372.000000	88.241060 
372.500000	87.840439 
373.000000	87.194075 
373.500000	86.290515 
374.000000	85.358090 
374.500000	84.585734 
375.000000	83.970590 
375.500000	83.229348 
376.000000	82.481159 
376.500000	81.739787 
377.000000	81.013939 
377.500000	80.134462 
378.000000	79.276795 
378.500000	78.494234 
379.000000	77.654401 
379.500000	76.618954 
380.000000	75.576121 
380.500000	74.632734 
381.000000	73.584628 
381.500000	72.394946 
382.000000	71.338992 
382.500000	70.510340 
383.000000	69.717227 
383.500000	68.732143 
384.000000	67.717257 
384.500000	66.735303 
385.000000	65.816613 
385.500000	64.763787 
386.000000	63.621825 
386.500000	62.438530 
387.000000	61.334553 
387.500000	60.277893 
388.000000	59.327500 
388.500000	58.456984 
389.000000	57.556325 
389.500000	56.508931 
390.000000	55.371704 
390.500000	54.372166 
391.000000	53.529242 
391.500000	52.707871 
392.000000	51.777431 
392.500000	50.820098 
393.000000	49.921469 
393.500000	49.079340 
394.000000	48.174159 
394.500000	47.194818 
395.000000	46.240840 
395.500000	45.375386 
396.000000	44.530477 
396.500000	43.637098 
397.000000	42.683340 
397.500000	41.779522 
398.000000	40.913348 
398.500000	40.093795 
399.000000	39.219121 
399.500000	38.287954 
400.000000	37.297999 

