PE FL                   SPECTRUM    ASCII       PEDS        1.60        
  -1
CDSRT#14.SP
02/03/22
00:56:11.00
02/03/22
00:57:53.00


450.000000
1









LS55
490.00
5.00
5.00
SCAN
1
20
100
100
0
100
0
0
0
1
7
ON
450 400 
1 0 0
#HDR
-1
-1
#GR
NM

0.00002384185791015625
0.0
300.000000
0.500000
301
8
68.998598
8.670810
#DATA
300.000000	17.222000 
300.500000	18.632181 
301.000000	20.084939 
301.500000	21.488719 
302.000000	22.750469 
302.500000	24.069219 
303.000000	25.455371 
303.500000	26.799181 
304.000000	27.932628 
304.500000	28.972924 
305.000000	29.949280 
305.500000	30.823636 
306.000000	31.476371 
306.500000	31.919416 
307.000000	32.317750 
307.500000	32.774886 
308.000000	33.266734 
308.500000	33.690181 
309.000000	34.054787 
309.500000	34.389704 
310.000000	34.638219 
310.500000	34.815810 
311.000000	34.948340 
311.500000	35.098878 
312.000000	35.235363 
312.500000	35.307924 
313.000000	35.347810 
313.500000	35.377537 
314.000000	35.474886 
314.500000	35.512871 
315.000000	35.513227 
315.500000	35.470553 
316.000000	35.555333 
316.500000	35.745295 
317.000000	35.899204 
317.500000	35.965037 
318.000000	36.022628 
318.500000	36.192643 
319.000000	36.413409 
319.500000	36.589030 
320.000000	36.642977 
320.500000	36.730522 
321.000000	36.906121 
321.500000	37.101553 
322.000000	37.188378 
322.500000	37.213431 
323.000000	37.336303 
323.500000	37.569181 
324.000000	37.789909 
324.500000	37.892325 
325.000000	37.978825 
325.500000	38.087037 
326.000000	38.311098 
326.500000	38.589666 
327.000000	38.925500 
327.500000	39.252606 
328.000000	39.553166 
328.500000	39.837825 
329.000000	40.050060 
329.500000	40.198431 
330.000000	40.375946 
330.500000	40.719515 
331.000000	41.179575 
331.500000	41.568833 
332.000000	41.830727 
332.500000	42.037287 
333.000000	42.375159 
333.500000	42.789446 
334.000000	43.229886 
334.500000	43.567780 
335.000000	43.861242 
335.500000	44.124590 
336.000000	44.475977 
336.500000	44.926621 
337.000000	45.440727 
337.500000	45.873863 
338.000000	46.223500 
338.500000	46.528340 
339.000000	46.911446 
339.500000	47.326545 
340.000000	47.839901 
340.500000	48.298272 
341.000000	48.744287 
341.500000	49.006568 
342.000000	49.268318 
342.500000	49.499984 
343.000000	49.894674 
343.500000	50.348810 
344.000000	50.845916 
344.500000	51.213181 
345.000000	51.598212 
345.500000	51.994674 
346.000000	52.513113 
346.500000	53.024666 
347.000000	53.548848 
347.500000	53.962272 
348.000000	54.405318 
348.500000	54.883113 
349.000000	55.450734 
349.500000	55.954507 
350.000000	56.414598 
350.500000	56.903143 
351.000000	57.437863 
351.500000	57.919719 
352.000000	58.257378 
352.500000	58.606446 
353.000000	59.110598 
353.500000	59.721674 
354.000000	60.260643 
354.500000	60.717825 
355.000000	61.260090 
355.500000	61.875734 
356.000000	62.435742 
356.500000	62.861287 
357.000000	63.288643 
357.500000	63.679583 
358.000000	64.111553 
358.500000	64.555068 
359.000000	65.158189 
359.500000	65.792590 
360.000000	66.365507 
360.500000	66.778553 
361.000000	67.162234 
361.500000	67.425424 
362.000000	67.678643 
362.500000	67.953030 
363.000000	68.306727 
363.500000	68.540196 
364.000000	68.661651 
364.500000	68.680575 
365.000000	68.716477 
365.500000	68.757401 
366.000000	68.840833 
366.500000	68.960386 
367.000000	68.998598 
367.500000	68.927068 
368.000000	68.832242 
368.500000	68.793522 
369.000000	68.742333 
369.500000	68.627121 
370.000000	68.411462 
370.500000	68.083287 
371.000000	67.768484 
371.500000	67.528954 
372.000000	67.374833 
372.500000	67.052136 
373.000000	66.622333 
373.500000	66.178553 
374.000000	65.776787 
374.500000	65.255189 
375.000000	64.655204 
375.500000	64.046030 
376.000000	63.405575 
376.500000	62.714780 
377.000000	62.028007 
377.500000	61.435287 
378.000000	60.768143 
378.500000	60.059757 
379.000000	59.324234 
379.500000	58.649787 
380.000000	57.906219 
380.500000	57.116075 
381.000000	56.282143 
381.500000	55.596121 
382.000000	54.994666 
382.500000	54.358469 
383.000000	53.500946 
383.500000	52.627674 
384.000000	51.919568 
384.500000	51.341848 
385.000000	50.595848 
385.500000	49.687651 
386.000000	48.813007 
386.500000	48.044143 
387.000000	47.333409 
387.500000	46.584378 
388.000000	45.912409 
388.500000	45.138242 
389.000000	44.272704 
389.500000	43.374045 
390.000000	42.710098 
390.500000	42.115962 
391.000000	41.486787 
391.500000	40.763386 
392.000000	40.048181 
392.500000	39.358500 
393.000000	38.646159 
393.500000	37.981371 
394.000000	37.297212 
394.500000	36.634212 
395.000000	35.968954 
395.500000	35.409007 
396.000000	34.833287 
396.500000	34.178780 
397.000000	33.477030 
397.500000	32.832810 
398.000000	32.258757 
398.500000	31.642553 
399.000000	31.074303 
399.500000	30.510583 
400.000000	29.996015 
400.500000	29.437234 
401.000000	28.890772 
401.500000	28.338446 
402.000000	27.792689 
402.500000	27.314886 
403.000000	26.868174 
403.500000	26.372969 
404.000000	25.790378 
404.500000	25.287469 
405.000000	24.913356 
405.500000	24.630962 
406.000000	24.296939 
406.500000	23.863939 
407.000000	23.367840 
407.500000	22.894340 
408.000000	22.512977 
408.500000	22.170901 
409.000000	21.803878 
409.500000	21.341106 
410.000000	20.796386 
410.500000	20.238128 
411.000000	19.782636 
411.500000	19.474598 
412.000000	19.257272 
412.500000	18.983340 
413.000000	18.636287 
413.500000	18.267795 
414.000000	17.945583 
414.500000	17.639946 
415.000000	17.345295 
415.500000	17.060598 
416.000000	16.843265 
416.500000	16.629893 
417.000000	16.401939 
417.500000	16.163219 
418.000000	15.941333 
418.500000	15.716295 
419.000000	15.547780 
419.500000	15.386704 
420.000000	15.254992 
420.500000	15.121075 
421.000000	15.010530 
421.500000	14.868416 
422.000000	14.664295 
422.500000	14.468727 
423.000000	14.353386 
423.500000	14.299007 
424.000000	14.173560 
424.500000	14.014227 
425.000000	13.848856 
425.500000	13.703750 
426.000000	13.558984 
426.500000	13.422840 
427.000000	13.296287 
427.500000	13.192242 
428.000000	13.084424 
428.500000	12.944189 
429.000000	12.740060 
429.500000	12.552734 
430.000000	12.449750 
430.500000	12.458053 
431.000000	12.437848 
431.500000	12.326196 
432.000000	12.135121 
432.500000	11.952931 
433.000000	11.810204 
433.500000	11.659962 
434.000000	11.462143 
434.500000	11.260113 
435.000000	11.166363 
435.500000	11.174931 
436.000000	11.187515 
436.500000	11.078181 
437.000000	10.903083 
437.500000	10.750174 
438.000000	10.664969 
438.500000	10.584969 
439.000000	10.471810 
439.500000	10.328416 
440.000000	10.228151 
440.500000	10.165386 
441.000000	10.118492 
441.500000	10.027500 
442.000000	9.936090  
442.500000	9.859022  
443.000000	9.789795  
443.500000	9.683242  
444.000000	9.578431  
444.500000	9.494371  
445.000000	9.430659  
445.500000	9.352174  
446.000000	9.250265  
446.500000	9.139424  
447.000000	9.051098  
447.500000	8.977439  
448.000000	8.912772  
448.500000	8.813409  
449.000000	8.715863  
449.500000	8.670810  
450.000000	8.698000  

