PE FL                   SPECTRUM    ASCII       PEDS        1.60        
  -1
CDSRT#10.SP
02/03/22
00:46:20.00
02/03/22
00:48:35.00


550.000000
1









LS55
310.00
5.00
5.00
SCAN
1
20
100
100
0
100
0
1
0
1
7
ON
520 280 
1 0 0
#HDR
-1
-1
#GR
NM

0.00002384185791015625
0.0
340.000000
0.500000
421
8
70.503007
20.229045
#DATA
340.000000	20.978000 
340.500000	20.440484 
341.000000	20.229045 
341.500000	20.307280 
342.000000	20.461719 
342.500000	20.559712 
343.000000	20.650242 
343.500000	20.758931 
344.000000	20.946015 
344.500000	21.121303 
345.000000	21.186878 
345.500000	21.156318 
346.000000	21.210068 
346.500000	21.368825 
347.000000	21.520636 
347.500000	21.640136 
348.000000	21.749840 
348.500000	21.923840 
349.000000	22.027159 
349.500000	22.061196 
350.000000	22.081628 
350.500000	22.123143 
351.000000	22.218939 
351.500000	22.335431 
352.000000	22.538007 
352.500000	22.744363 
353.000000	22.990712 
353.500000	23.185045 
354.000000	23.358833 
354.500000	23.489674 
355.000000	23.641090 
355.500000	23.863378 
356.000000	24.038113 
356.500000	24.135575 
357.000000	24.217371 
357.500000	24.424628 
358.000000	24.660621 
358.500000	24.810492 
359.000000	24.865590 
359.500000	24.970053 
360.000000	25.124060 
360.500000	25.316128 
361.000000	25.458348 
361.500000	25.594931 
362.000000	25.659871 
362.500000	25.772386 
363.000000	25.933492 
363.500000	26.150166 
364.000000	26.325575 
364.500000	26.459227 
365.000000	26.637522 
365.500000	26.816083 
366.000000	27.013121 
366.500000	27.178424 
367.000000	27.450386 
367.500000	27.713257 
368.000000	27.910075 
368.500000	27.944287 
369.000000	27.986333 
369.500000	28.170234 
370.000000	28.497583 
370.500000	28.923946 
371.000000	29.414946 
371.500000	29.917560 
372.000000	30.380242 
372.500000	30.717750 
373.000000	30.982181 
373.500000	31.282530 
374.000000	31.687545 
374.500000	32.215462 
375.000000	32.709606 
375.500000	33.123621 
376.000000	33.459371 
376.500000	33.876159 
377.000000	34.318386 
377.500000	34.824090 
378.000000	35.302242 
378.500000	35.757893 
379.000000	36.194416 
379.500000	36.602893 
380.000000	37.042022 
380.500000	37.529439 
381.000000	38.071803 
381.500000	38.655068 
382.000000	39.258090 
382.500000	39.796765 
383.000000	40.327992 
383.500000	40.942409 
384.000000	41.578462 
384.500000	42.171454 
385.000000	42.616984 
385.500000	43.030507 
386.000000	43.558924 
386.500000	44.242378 
387.000000	44.930931 
387.500000	45.545265 
388.000000	46.148106 
388.500000	46.816295 
389.000000	47.487227 
389.500000	48.053749 
390.000000	48.611318 
390.500000	49.227454 
391.000000	49.813484 
391.500000	50.309628 
392.000000	50.807803 
392.500000	51.385378 
393.000000	51.996590 
393.500000	52.584818 
394.000000	53.226560 
394.500000	53.860060 
395.000000	54.385477 
395.500000	54.850954 
396.000000	55.416507 
396.500000	56.047363 
397.000000	56.622636 
397.500000	57.071689 
398.000000	57.513484 
398.500000	57.957515 
399.000000	58.501401 
399.500000	59.032446 
400.000000	59.592386 
400.500000	60.105628 
401.000000	60.672946 
401.500000	61.105128 
402.000000	61.342121 
402.500000	61.564007 
403.000000	61.920325 
403.500000	62.393674 
404.000000	62.855795 
404.500000	63.328636 
405.000000	63.769227 
405.500000	64.173818 
406.000000	64.525128 
406.500000	64.917583 
407.000000	65.359560 
407.500000	65.718166 
408.000000	65.994833 
408.500000	66.169719 
409.000000	66.448742 
409.500000	66.751636 
410.000000	67.063598 
410.500000	67.311863 
411.000000	67.638075 
411.500000	67.871075 
412.000000	68.055886 
412.500000	68.167106 
413.000000	68.464439 
413.500000	68.729924 
414.000000	68.985196 
414.500000	69.119856 
415.000000	69.307863 
415.500000	69.444166 
416.000000	69.631787 
416.500000	69.816371 
417.000000	69.938068 
417.500000	69.948151 
418.000000	69.913590 
418.500000	70.039143 
419.000000	70.271174 
419.500000	70.453863 
420.000000	70.503007 
420.500000	70.500030 
421.000000	70.448606 
421.500000	70.369901 
422.000000	70.308704 
422.500000	70.310893 
423.000000	70.385477 
423.500000	70.432340 
424.000000	70.265378 
424.500000	69.955780 
425.000000	69.722962 
425.500000	69.700643 
426.000000	69.820371 
426.500000	69.822856 
427.000000	69.623249 
427.500000	69.330772 
428.000000	69.072371 
428.500000	68.942280 
429.000000	68.997022 
429.500000	69.005522 
430.000000	68.776454 
430.500000	68.277196 
431.000000	67.794166 
431.500000	67.530356 
432.000000	67.477462 
432.500000	67.432340 
433.000000	67.323893 
433.500000	67.225356 
434.000000	67.089143 
434.500000	66.801848 
435.000000	66.292469 
435.500000	65.766287 
436.000000	65.368325 
436.500000	65.120916 
437.000000	64.850772 
437.500000	64.544818 
438.000000	64.210159 
438.500000	63.860196 
439.000000	63.468719 
439.500000	63.106113 
440.000000	62.693363 
440.500000	62.284075 
441.000000	61.934378 
441.500000	61.682295 
442.000000	61.399757 
442.500000	60.956856 
443.000000	60.463219 
443.500000	60.000106 
444.000000	59.646712 
444.500000	59.225090 
445.000000	58.845848 
445.500000	58.403848 
446.000000	58.019136 
446.500000	57.518030 
447.000000	57.030454 
447.500000	56.495030 
448.000000	56.063090 
448.500000	55.670015 
449.000000	55.360931 
449.500000	55.028219 
450.000000	54.618181 
450.500000	54.132272 
451.000000	53.671166 
451.500000	53.268696 
452.000000	52.891181 
452.500000	52.460598 
453.000000	52.098250 
453.500000	51.742522 
454.000000	51.329143 
454.500000	50.823537 
455.000000	50.464280 
455.500000	50.135098 
456.000000	49.680878 
456.500000	49.109909 
457.000000	48.753946 
457.500000	48.611121 
458.000000	48.358712 
458.500000	47.917174 
459.000000	47.439931 
459.500000	47.073045 
460.000000	46.695810 
460.500000	46.282446 
461.000000	45.859613 
461.500000	45.540212 
462.000000	45.226946 
462.500000	44.864727 
463.000000	44.448075 
463.500000	44.066295 
464.000000	43.700234 
464.500000	43.234053 
465.000000	42.783431 
465.500000	42.407469 
466.000000	42.154530 
466.500000	41.889416 
467.000000	41.681537 
467.500000	41.397378 
468.000000	41.127712 
468.500000	40.816992 
469.000000	40.596136 
469.500000	40.328704 
470.000000	39.981568 
470.500000	39.595053 
471.000000	39.311962 
471.500000	39.088159 
472.000000	38.925825 
472.500000	38.757446 
473.000000	38.553954 
473.500000	38.354719 
474.000000	38.141022 
474.500000	37.862681 
475.000000	37.629037 
475.500000	37.456727 
476.000000	37.329401 
476.500000	37.066742 
477.000000	36.734446 
477.500000	36.430053 
478.000000	36.230439 
478.500000	36.014946 
479.000000	35.812007 
479.500000	35.639477 
480.000000	35.410537 
480.500000	35.217954 
481.000000	35.042068 
481.500000	34.934015 
482.000000	34.740734 
482.500000	34.531484 
483.000000	34.312742 
483.500000	34.110712 
484.000000	33.919977 
484.500000	33.738939 
485.000000	33.659106 
485.500000	33.523977 
486.000000	33.442106 
486.500000	33.314931 
487.000000	33.236590 
487.500000	33.055242 
488.000000	32.911287 
488.500000	32.745954 
489.000000	32.666893 
489.500000	32.514931 
490.000000	32.280977 
490.500000	32.014348 
491.000000	31.887000 
491.500000	31.842954 
492.000000	31.808606 
492.500000	31.678053 
493.000000	31.489416 
493.500000	31.322939 
494.000000	31.196674 
494.500000	31.170030 
495.000000	31.117431 
495.500000	30.995742 
496.000000	30.799060 
496.500000	30.733939 
497.000000	30.677507 
497.500000	30.572878 
498.000000	30.329242 
498.500000	30.101030 
499.000000	29.975916 
499.500000	29.948007 
500.000000	29.942189 
500.500000	29.893871 
501.000000	29.847757 
501.500000	29.762386 
502.000000	29.672984 
502.500000	29.542871 
503.000000	29.369946 
503.500000	29.179022 
504.000000	29.077121 
504.500000	29.001060 
505.000000	28.941507 
505.500000	28.851075 
506.000000	28.848015 
506.500000	28.825053 
507.000000	28.736689 
507.500000	28.539462 
508.000000	28.440318 
508.500000	28.371696 
509.000000	28.251787 
509.500000	28.125333 
510.000000	28.101401 
510.500000	28.184666 
511.000000	28.192719 
511.500000	28.096984 
512.000000	27.921727 
512.500000	27.779659 
513.000000	27.693590 
513.500000	27.658545 
514.000000	27.604340 
514.500000	27.533484 
515.000000	27.419037 
515.500000	27.310742 
516.000000	27.185977 
516.500000	27.136393 
517.000000	27.076242 
517.500000	26.985234 
518.000000	26.825742 
518.500000	26.711969 
519.000000	26.656507 
519.500000	26.616492 
520.000000	26.588257 
520.500000	26.508106 
521.000000	26.387462 
521.500000	26.267492 
522.000000	26.229757 
522.500000	26.193621 
523.000000	26.089772 
523.500000	25.968575 
524.000000	25.847045 
524.500000	25.773803 
525.000000	25.702431 
525.500000	25.679901 
526.000000	25.659007 
526.500000	25.572901 
527.000000	25.429863 
527.500000	25.304840 
528.000000	25.264333 
528.500000	25.226727 
529.000000	25.184386 
529.500000	25.165825 
530.000000	25.148863 
530.500000	25.028992 
531.000000	24.827000 
531.500000	24.740303 
532.000000	24.771689 
532.500000	24.782969 
533.000000	24.655250 
533.500000	24.461666 
534.000000	24.374060 
534.500000	24.334659 
535.000000	24.306469 
535.500000	24.158848 
536.000000	24.008621 
536.500000	23.885121 
537.000000	23.883780 
537.500000	23.838204 
538.000000	23.768303 
538.500000	23.675863 
539.000000	23.645356 
539.500000	23.580734 
540.000000	23.431825 
540.500000	23.292643 
541.000000	23.270515 
541.500000	23.307674 
542.000000	23.252863 
542.500000	23.103416 
543.000000	22.967878 
543.500000	22.916977 
544.000000	22.840568 
544.500000	22.714992 
545.000000	22.601295 
545.500000	22.575598 
546.000000	22.581204 
546.500000	22.546492 
547.000000	22.475848 
547.500000	22.398931 
548.000000	22.351393 
548.500000	22.301636 
549.000000	22.230113 
549.500000	22.021613 
550.000000	21.663000 

