PE FL                   SPECTRUM    ASCII       PEDS        1.60        
  -1
CDSRT#12.SP
02/03/22
00:52:13.00
02/03/22
00:53:52.00


400.000000
1









LS55
420.00
5.00
5.00
SCAN
1
20
100
100
0
100
0
0
0
1
7
ON
600 365 
1 0 0
#HDR
-1
-1
#GR
NM

0.00002384185791015625
0.0
250.000000
0.500000
301
8
80.874083
7.146999
#DATA
250.000000	7.146999  
250.500000	7.288393  
251.000000	7.389037  
251.500000	7.404810  
252.000000	7.413712  
252.500000	7.469431  
253.000000	7.594227  
253.500000	7.708030  
254.000000	7.840689  
254.500000	8.026977  
255.000000	8.216696  
255.500000	8.323590  
256.000000	8.382946  
256.500000	8.480333  
257.000000	8.564954  
257.500000	8.587227  
258.000000	8.566522  
258.500000	8.593060  
259.000000	8.680287  
259.500000	8.770106  
260.000000	8.850803  
260.500000	8.980280  
261.000000	9.175787  
261.500000	9.383969  
262.000000	9.544484  
262.500000	9.613401  
263.000000	9.669272  
263.500000	9.813931  
264.000000	10.056575 
264.500000	10.291530 
265.000000	10.375719 
265.500000	10.368992 
266.000000	10.410772 
266.500000	10.570083 
267.000000	10.774310 
267.500000	10.927121 
268.000000	11.037757 
268.500000	11.081954 
269.000000	11.140121 
269.500000	11.184840 
270.000000	11.264628 
270.500000	11.386765 
271.000000	11.561121 
271.500000	11.711545 
272.000000	11.823227 
272.500000	11.899143 
273.000000	11.892772 
273.500000	11.823318 
274.000000	11.775416 
274.500000	11.822674 
275.000000	11.877204 
275.500000	11.883045 
276.000000	11.853181 
276.500000	11.879075 
277.000000	11.866946 
277.500000	11.830143 
278.000000	11.759378 
278.500000	11.728727 
279.000000	11.702977 
279.500000	11.708340 
280.000000	11.719825 
280.500000	11.675348 
281.000000	11.596136 
281.500000	11.484272 
282.000000	11.444613 
282.500000	11.409606 
283.000000	11.397810 
283.500000	11.327196 
284.000000	11.303053 
284.500000	11.306825 
285.000000	11.307560 
285.500000	11.181469 
286.000000	10.958257 
286.500000	10.699886 
287.000000	10.522674 
287.500000	10.423333 
288.000000	10.327719 
288.500000	10.152507 
289.000000	9.988568  
289.500000	9.909704  
290.000000	9.912363  
290.500000	9.835143  
291.000000	9.710742  
291.500000	9.629037  
292.000000	9.637901  
292.500000	9.694734  
293.000000	9.825174  
293.500000	10.040484 
294.000000	10.308409 
294.500000	10.614484 
295.000000	11.057939 
295.500000	11.729977 
296.000000	12.636484 
296.500000	13.750659 
297.000000	15.148856 
297.500000	16.940007 
298.000000	19.168083 
298.500000	21.735840 
299.000000	24.640977 
299.500000	28.029553 
300.000000	31.877810 
300.500000	35.906196 
301.000000	39.800499 
301.500000	43.569348 
302.000000	47.320522 
302.500000	51.021560 
303.000000	54.377863 
303.500000	57.377242 
304.000000	60.006522 
304.500000	62.363204 
305.000000	64.442977 
305.500000	66.263409 
306.000000	67.672492 
306.500000	68.782500 
307.000000	69.750462 
307.500000	70.664560 
308.000000	71.293840 
308.500000	71.325000 
309.000000	70.874757 
309.500000	70.304734 
310.000000	69.887780 
310.500000	69.461363 
311.000000	68.839189 
311.500000	68.015060 
312.000000	67.197181 
312.500000	66.353893 
313.000000	65.427113 
313.500000	64.447356 
314.000000	63.478954 
314.500000	62.450613 
315.000000	61.342500 
315.500000	60.231522 
316.000000	59.297106 
316.500000	58.495143 
317.000000	57.792886 
317.500000	57.032878 
318.000000	56.291696 
318.500000	55.632962 
319.000000	55.057469 
319.500000	54.402583 
320.000000	53.780128 
320.500000	53.253810 
321.000000	52.886689 
321.500000	52.561553 
322.000000	52.289674 
322.500000	52.065045 
323.000000	51.911757 
323.500000	51.722939 
324.000000	51.559234 
324.500000	51.484727 
325.000000	51.547492 
325.500000	51.534431 
326.000000	51.438901 
326.500000	51.344856 
327.000000	51.482772 
327.500000	51.730590 
328.000000	52.029022 
328.500000	52.304893 
329.000000	52.712742 
329.500000	53.223401 
330.000000	53.765840 
330.500000	54.277037 
331.000000	54.759280 
331.500000	55.252022 
332.000000	55.759689 
332.500000	56.206590 
333.000000	56.633310 
333.500000	57.017454 
334.000000	57.487999 
334.500000	57.985583 
335.000000	58.651272 
335.500000	59.310159 
336.000000	60.043893 
336.500000	60.700045 
337.000000	61.252022 
337.500000	61.684977 
338.000000	62.215234 
338.500000	62.835530 
339.000000	63.426954 
339.500000	63.810856 
340.000000	64.065583 
340.500000	64.354333 
341.000000	64.808325 
341.500000	65.241590 
342.000000	65.697151 
342.500000	66.098757 
343.000000	66.666712 
343.500000	67.281765 
344.000000	67.938515 
344.500000	68.464492 
345.000000	68.964378 
345.500000	69.372454 
346.000000	69.779227 
346.500000	70.185196 
347.000000	70.749007 
347.500000	71.463803 
348.000000	72.190015 
348.500000	72.748924 
349.000000	73.210757 
349.500000	73.604659 
350.000000	73.953848 
350.500000	74.354901 
351.000000	74.940977 
351.500000	75.623295 
352.000000	76.170856 
352.500000	76.565969 
353.000000	76.917053 
353.500000	77.291242 
354.000000	77.640712 
354.500000	78.082734 
355.000000	78.565295 
355.500000	78.951143 
356.000000	79.117030 
356.500000	79.250386 
357.000000	79.539810 
357.500000	79.953363 
358.000000	80.287234 
358.500000	80.493727 
359.000000	80.624537 
359.500000	80.753060 
360.000000	80.751022 
360.500000	80.741515 
361.000000	80.631757 
361.500000	80.586825 
362.000000	80.464310 
362.500000	80.594886 
363.000000	80.760121 
363.500000	80.874083 
364.000000	80.629075 
364.500000	80.273681 
365.000000	79.919462 
365.500000	79.632613 
366.000000	79.370492 
366.500000	79.033181 
367.000000	78.669257 
367.500000	78.121606 
368.000000	77.584446 
368.500000	77.042393 
369.000000	76.703530 
369.500000	76.250522 
370.000000	75.791098 
370.500000	75.229924 
371.000000	74.726772 
371.500000	73.980659 
372.000000	73.058734 
372.500000	72.057810 
373.000000	71.265348 
373.500000	70.536651 
374.000000	69.706969 
374.500000	68.720522 
375.000000	67.765386 
375.500000	66.956128 
376.000000	66.205196 
376.500000	65.342583 
377.000000	64.425643 
377.500000	63.573310 
378.000000	62.743348 
378.500000	61.746325 
379.000000	60.638499 
379.500000	59.532939 
380.000000	58.599780 
380.500000	57.704924 
381.000000	56.848606 
381.500000	55.970098 
382.000000	55.069492 
382.500000	54.024037 
383.000000	52.960136 
383.500000	51.956204 
384.000000	51.093598 
384.500000	50.223734 
385.000000	49.342810 
385.500000	48.424325 
386.000000	47.499340 
386.500000	46.549636 
387.000000	45.653106 
387.500000	44.705780 
388.000000	43.707030 
388.500000	42.748318 
389.000000	41.906916 
389.500000	41.123818 
390.000000	40.292606 
390.500000	39.486757 
391.000000	38.710212 
391.500000	37.970015 
392.000000	37.127840 
392.500000	36.279848 
393.000000	35.454848 
393.500000	34.718780 
394.000000	34.013409 
394.500000	33.301674 
395.000000	32.581560 
395.500000	31.837371 
396.000000	31.099803 
396.500000	30.343492 
397.000000	29.669060 
397.500000	29.057401 
398.000000	28.545325 
398.500000	28.121431 
399.000000	27.705818 
399.500000	27.108795 
400.000000	26.309000 

