PE FL                   SPECTRUM    ASCII       PEDS        1.60        
  -1
CDSRT#09.SP
02/03/22
00:43:27.00
02/03/22
00:45:51.00


520.000000
1









LS55
280.00
5.00
5.00
SCAN
1
20
100
100
0
100
0
1
0
1
7
ON
550 365 
1 0 0
#HDR
-1
-1
#GR
NM

0.00002384185791015625
0.0
300.000000
0.500000
441
8
28.017106
4.917000
#DATA
300.000000	6.171999  
300.500000	7.199424  
301.000000	8.192522  
301.500000	9.234015  
302.000000	10.383227 
302.500000	11.683060 
303.000000	13.055053 
303.500000	14.478575 
304.000000	15.906318 
304.500000	17.356848 
305.000000	18.804250 
305.500000	20.168386 
306.000000	21.410272 
306.500000	22.526795 
307.000000	23.657068 
307.500000	24.707257 
308.000000	25.624537 
308.500000	26.279356 
309.000000	26.699719 
309.500000	26.978098 
310.000000	27.278068 
310.500000	27.657840 
311.000000	27.949893 
311.500000	28.017106 
312.000000	27.918962 
312.500000	27.827143 
313.000000	27.765946 
313.500000	27.642568 
314.000000	27.429787 
314.500000	27.117560 
315.000000	26.842219 
315.500000	26.692500 
316.000000	26.682303 
316.500000	26.655325 
317.000000	26.381696 
317.500000	25.938409 
318.000000	25.423340 
318.500000	25.054181 
319.000000	24.760500 
319.500000	24.584621 
320.000000	24.297545 
320.500000	23.977500 
321.000000	23.640878 
321.500000	23.464810 
322.000000	23.304265 
322.500000	23.085310 
323.000000	22.811446 
323.500000	22.506287 
324.000000	22.118136 
324.500000	21.675787 
325.000000	21.275712 
325.500000	20.936106 
326.000000	20.609386 
326.500000	20.257772 
327.000000	19.930128 
327.500000	19.596560 
328.000000	19.282030 
328.500000	18.926075 
329.000000	18.561098 
329.500000	18.151075 
330.000000	17.827060 
330.500000	17.519969 
331.000000	17.230901 
331.500000	16.896931 
332.000000	16.530613 
332.500000	16.188174 
333.000000	15.932909 
333.500000	15.746257 
334.000000	15.506401 
334.500000	15.203424 
335.000000	14.887356 
335.500000	14.580340 
336.000000	14.278030 
336.500000	13.994946 
337.000000	13.794401 
337.500000	13.608257 
338.000000	13.435166 
338.500000	13.285075 
339.000000	13.156219 
339.500000	12.966742 
340.000000	12.742984 
340.500000	12.531477 
341.000000	12.312075 
341.500000	12.074780 
342.000000	11.842954 
342.500000	11.644416 
343.000000	11.487045 
343.500000	11.346651 
344.000000	11.256454 
344.500000	11.159280 
345.000000	11.011257 
345.500000	10.819272 
346.000000	10.642651 
346.500000	10.475742 
347.000000	10.317189 
347.500000	10.139901 
348.000000	9.951371  
348.500000	9.779931  
349.000000	9.671401  
349.500000	9.569704  
350.000000	9.448386  
350.500000	9.299136  
351.000000	9.245704  
351.500000	9.201795  
352.000000	9.125227  
352.500000	9.023886  
353.000000	9.011098  
353.500000	9.004689  
354.000000	8.979909  
354.500000	8.949333  
355.000000	8.941977  
355.500000	8.921113  
356.000000	8.914121  
356.500000	8.958545  
357.000000	9.009136  
357.500000	8.979659  
358.000000	8.911590  
358.500000	8.900984  
359.000000	8.955818  
359.500000	9.017712  
360.000000	9.055757  
360.500000	9.056878  
361.000000	9.049537  
361.500000	9.039606  
362.000000	9.053280  
362.500000	9.077484  
363.000000	9.064159  
363.500000	8.993045  
364.000000	8.914643  
364.500000	8.899825  
365.000000	8.948272  
365.500000	8.970022  
366.000000	8.920931  
366.500000	8.834257  
367.000000	8.773174  
367.500000	8.751045  
368.000000	8.777863  
368.500000	8.794477  
369.000000	8.833303  
369.500000	8.868795  
370.000000	8.906750  
370.500000	8.900901  
371.000000	8.912128  
371.500000	8.953037  
372.000000	9.025212  
372.500000	9.071628  
373.000000	9.122242  
373.500000	9.158287  
374.000000	9.155439  
374.500000	9.145083  
375.000000	9.212901  
375.500000	9.325545  
376.000000	9.408757  
376.500000	9.432416  
377.000000	9.430356  
377.500000	9.475098  
378.000000	9.544401  
378.500000	9.670272  
379.000000	9.813833  
379.500000	9.944583  
380.000000	9.993787  
380.500000	10.019977 
381.000000	10.089333 
381.500000	10.210507 
382.000000	10.313659 
382.500000	10.346681 
383.000000	10.383522 
383.500000	10.415969 
384.000000	10.467280 
384.500000	10.492174 
385.000000	10.532833 
385.500000	10.567916 
386.000000	10.574477 
386.500000	10.522848 
387.000000	10.469015 
387.500000	10.498719 
388.000000	10.614606 
388.500000	10.715265 
389.000000	10.699765 
389.500000	10.632174 
390.000000	10.587090 
390.500000	10.635659 
391.000000	10.749560 
391.500000	10.821257 
392.000000	10.836522 
392.500000	10.794575 
393.000000	10.739507 
393.500000	10.694446 
394.000000	10.749030 
394.500000	10.859439 
395.000000	10.950121 
395.500000	10.948386 
396.000000	10.879363 
396.500000	10.847977 
397.000000	10.837780 
397.500000	10.890780 
398.000000	10.940083 
398.500000	11.052787 
399.000000	11.177484 
399.500000	11.252712 
400.000000	11.224477 
400.500000	11.171712 
401.000000	11.181272 
401.500000	11.208833 
402.000000	11.211810 
402.500000	11.212674 
403.000000	11.267553 
403.500000	11.330568 
404.000000	11.363446 
404.500000	11.369196 
405.000000	11.370492 
405.500000	11.415310 
406.000000	11.503280 
406.500000	11.541318 
407.000000	11.531780 
407.500000	11.510651 
408.000000	11.574787 
408.500000	11.619515 
409.000000	11.620272 
409.500000	11.588136 
410.000000	11.625234 
410.500000	11.666871 
411.000000	11.697871 
411.500000	11.696287 
412.000000	11.728666 
412.500000	11.752734 
413.000000	11.770060 
413.500000	11.820227 
414.000000	11.920446 
414.500000	11.981780 
415.000000	11.953704 
415.500000	11.909196 
416.000000	11.930143 
416.500000	12.045477 
417.000000	12.149621 
417.500000	12.206954 
418.000000	12.205166 
418.500000	12.200060 
419.000000	12.239318 
419.500000	12.332621 
420.000000	12.377515 
420.500000	12.288583 
421.000000	12.186901 
421.500000	12.195484 
422.000000	12.388931 
422.500000	12.562356 
423.000000	12.591492 
423.500000	12.494734 
424.000000	12.408371 
424.500000	12.397378 
425.000000	12.414719 
425.500000	12.456613 
426.000000	12.443553 
426.500000	12.447219 
427.000000	12.408833 
427.500000	12.434659 
428.000000	12.472666 
428.500000	12.500674 
429.000000	12.446121 
429.500000	12.401689 
430.000000	12.445924 
430.500000	12.525462 
431.000000	12.524696 
431.500000	12.461575 
432.000000	12.423583 
432.500000	12.424583 
433.000000	12.431000 
433.500000	12.439833 
434.000000	12.482681 
434.500000	12.506000 
435.000000	12.500151 
435.500000	12.469946 
436.000000	12.475977 
436.500000	12.471151 
437.000000	12.468696 
437.500000	12.464318 
438.000000	12.422136 
438.500000	12.293356 
439.000000	12.113636 
439.500000	12.065954 
440.000000	12.138196 
440.500000	12.221045 
441.000000	12.185424 
441.500000	12.141939 
442.000000	12.143113 
442.500000	12.135333 
443.000000	12.078439 
443.500000	12.029651 
444.000000	11.997151 
444.500000	11.927742 
445.000000	11.849340 
445.500000	11.829454 
446.000000	11.877742 
446.500000	11.812310 
447.000000	11.658946 
447.500000	11.512515 
448.000000	11.509613 
448.500000	11.504598 
449.000000	11.490045 
449.500000	11.376484 
450.000000	11.296575 
450.500000	11.214924 
451.000000	11.233416 
451.500000	11.266545 
452.000000	11.266333 
452.500000	11.173348 
453.000000	11.102636 
453.500000	11.084689 
454.000000	11.062734 
454.500000	10.993454 
455.000000	10.909727 
455.500000	10.849075 
456.000000	10.796151 
456.500000	10.765522 
457.000000	10.749704 
457.500000	10.741833 
458.000000	10.659750 
458.500000	10.588984 
459.000000	10.543136 
459.500000	10.533674 
460.000000	10.437719 
460.500000	10.325356 
461.000000	10.227037 
461.500000	10.212484 
462.000000	10.203878 
462.500000	10.148840 
463.000000	10.001840 
463.500000	9.872772  
464.000000	9.862083  
464.500000	9.922424  
465.000000	9.906469  
465.500000	9.804727  
466.000000	9.713750  
466.500000	9.677613  
467.000000	9.610234  
467.500000	9.526878  
468.000000	9.482719  
468.500000	9.473833  
469.000000	9.447878  
469.500000	9.433045  
470.000000	9.444484  
470.500000	9.418689  
471.000000	9.310022  
471.500000	9.167780  
472.000000	9.118545  
472.500000	9.090477  
473.000000	9.066015  
473.500000	9.005613  
474.000000	8.963318  
474.500000	8.869742  
475.000000	8.741265  
475.500000	8.660060  
476.000000	8.675704  
476.500000	8.724439  
477.000000	8.715196  
477.500000	8.635060  
478.000000	8.522371  
478.500000	8.467287  
479.000000	8.508924  
479.500000	8.588780  
480.000000	8.626053  
480.500000	8.546280  
481.000000	8.406825  
481.500000	8.307856  
482.000000	8.295030  
482.500000	8.302871  
483.000000	8.259409  
483.500000	8.176143  
484.000000	8.116424  
484.500000	8.081143  
485.000000	8.104969  
485.500000	8.146651  
486.000000	8.159696  
486.500000	8.032946  
487.000000	7.879121  
487.500000	7.742886  
488.000000	7.698393  
488.500000	7.656424  
489.000000	7.671780  
489.500000	7.657325  
490.000000	7.619704  
490.500000	7.528022  
491.000000	7.462613  
491.500000	7.411704  
492.000000	7.396196  
492.500000	7.367492  
493.000000	7.344583  
493.500000	7.314204  
494.000000	7.274583  
494.500000	7.193696  
495.000000	7.116310  
495.500000	7.052409  
496.000000	7.048401  
496.500000	7.035613  
497.000000	6.992689  
497.500000	6.957143  
498.000000	6.962659  
498.500000	6.933015  
499.000000	6.827151  
499.500000	6.690946  
500.000000	6.636090  
500.500000	6.643946  
501.000000	6.640977  
501.500000	6.587628  
502.000000	6.538022  
502.500000	6.472113  
503.000000	6.396984  
503.500000	6.336393  
504.000000	6.257666  
504.500000	6.205878  
505.000000	6.186984  
505.500000	6.231856  
506.000000	6.223386  
506.500000	6.155856  
507.000000	6.106053  
507.500000	6.124348  
508.000000	6.120196  
508.500000	6.075871  
509.000000	6.026659  
509.500000	6.014863  
510.000000	5.982689  
510.500000	5.929772  
511.000000	5.852659  
511.500000	5.788060  
512.000000	5.692977  
512.500000	5.589060  
513.000000	5.521136  
513.500000	5.484439  
514.000000	5.487568  
514.500000	5.451515  
515.000000	5.434977  
515.500000	5.382999  
516.000000	5.353704  
516.500000	5.309121  
517.000000	5.319893  
517.500000	5.307871  
518.000000	5.278681  
518.500000	5.225590  
519.000000	5.189772  
519.500000	5.090325  
520.000000	4.917000  

