Created as New Dataset,
nm,%T
800.0,61.76
799.0,61.46
798.0,60.88
797.0,61.48
796.0,61.03
795.0,59.86
794.0,62.08
793.0,60.72
792.0,61.65
791.0,61.10
790.0,60.95
789.0,60.11
788.0,59.80
787.0,61.20
786.0,62.17
785.0,61.59
784.0,60.57
783.0,60.21
782.0,59.84
781.0,60.49
780.0,60.12
779.0,60.78
778.0,61.66
777.0,61.73
776.0,60.96
775.0,62.12
774.0,59.38
773.0,59.58
772.0,60.51
771.0,60.55
770.0,60.37
769.0,61.30
768.0,59.59
767.0,60.66
766.0,60.46
765.0,60.25
764.0,59.66
763.0,60.54
762.0,60.34
761.0,59.36
760.0,60.14
759.0,60.36
758.0,59.22
757.0,59.07
756.0,59.90
755.0,60.51
754.0,59.15
753.0,59.10
752.0,59.67
751.0,59.52
750.0,58.47
749.0,58.65
748.0,58.36
747.0,57.77
746.0,58.44
745.0,58.64
744.0,58.34
743.0,57.84
742.0,57.34
741.0,57.71
740.0,58.88
739.0,58.75
738.0,59.14
737.0,57.94
736.0,57.78
735.0,58.32
734.0,58.28
733.0,58.11
732.0,57.73
731.0,57.74
730.0,57.51
729.0,58.00
728.0,58.57
727.0,57.95
726.0,58.11
725.0,57.92
724.0,57.22
723.0,56.91
722.0,57.19
721.0,57.97
720.0,57.82
719.0,57.01
718.0,57.40
717.0,56.74
716.0,57.10
715.0,56.93
714.0,57.10
713.0,57.16
712.0,57.25
711.0,56.33
710.0,56.86
709.0,57.21
708.0,57.17
707.0,56.48
706.0,56.74
705.0,56.30
704.0,55.94
703.0,56.24
702.0,55.97
701.0,55.76
700.0,55.97
699.0,55.34
698.0,55.75
697.0,56.25
696.0,56.53
695.0,56.63
694.0,55.97
693.0,55.63
692.0,55.59
691.0,55.79
690.0,55.82
689.0,55.88
688.0,55.87
687.0,55.28
686.0,55.39
685.0,55.99
684.0,55.67
683.0,55.44
682.0,55.43
681.0,54.86
680.0,55.06
679.0,55.36
678.0,55.12
677.0,54.78
676.0,54.55
675.0,54.87
674.0,55.12
673.0,54.79
672.0,54.64
671.0,54.32
670.0,54.30
669.0,54.40
668.0,54.37
667.0,54.34
666.0,54.37
665.0,53.90
664.0,53.48
663.0,53.64
662.0,53.59
661.0,53.82
660.0,54.49
659.0,53.75
658.0,53.30
657.0,53.46
656.0,53.04
655.0,52.70
654.0,52.92
653.0,52.85
652.0,53.12
651.0,53.15
650.0,52.58
649.0,52.58
648.0,52.79
647.0,52.57
646.0,52.17
645.0,52.31
644.0,52.44
643.0,52.33
642.0,52.23
641.0,51.81
640.0,51.84
639.0,52.00
638.0,52.12
637.0,52.07
636.0,51.71
635.0,51.28
634.0,51.35
633.0,51.36
632.0,51.28
631.0,51.21
630.0,51.19
629.0,51.13
628.0,50.88
627.0,50.89
626.0,50.69
625.0,50.68
624.0,50.83
623.0,50.65
622.0,50.38
621.0,50.13
620.0,50.17
619.0,50.38
618.0,50.35
617.0,50.38
616.0,49.71
615.0,49.40
614.0,49.43
613.0,49.48
612.0,49.78
611.0,49.80
610.0,49.43
609.0,49.03
608.0,49.28
607.0,49.36
606.0,49.20
605.0,48.97
604.0,48.98
603.0,48.80
602.0,48.79
601.0,48.59
600.0,48.72
599.0,48.79
598.0,48.54
597.0,48.46
596.0,48.31
595.0,48.04
594.0,47.91
593.0,47.82
592.0,47.92
591.0,47.86
590.0,47.93
589.0,47.34
588.0,47.15
587.0,47.18
586.0,47.36
585.0,47.44
584.0,47.19
583.0,47.24
582.0,46.85
581.0,46.63
580.0,46.46
579.0,46.43
578.0,46.64
577.0,46.64
576.0,46.34
575.0,45.84
574.0,45.97
573.0,45.91
572.0,45.85
571.0,45.93
570.0,45.63
569.0,45.35
568.0,45.14
567.0,45.20
566.0,45.15
565.0,44.83
564.0,44.60
563.0,44.52
562.0,44.67
561.0,44.78
560.0,44.31
559.0,43.87
558.0,43.97
557.0,44.22
556.0,44.13
555.0,43.87
554.0,43.30
553.0,43.24
552.0,43.32
551.0,43.50
550.0,43.34
549.0,43.09
548.0,42.92
547.0,42.81
546.0,42.68
545.0,42.52
544.0,42.41
543.0,42.25
542.0,42.11
541.0,42.27
540.0,42.16
539.0,41.43
538.0,41.47
537.0,41.41
536.0,41.33
535.0,41.21
534.0,41.13
533.0,40.81
532.0,40.66
531.0,40.56
530.0,40.37
529.0,40.19
528.0,40.14
527.0,40.06
526.0,39.76
525.0,39.51
524.0,39.36
523.0,39.34
522.0,39.28
521.0,39.15
520.0,38.79
519.0,38.53
518.0,38.36
517.0,38.22
516.0,38.27
515.0,37.77
514.0,37.63
513.0,37.48
512.0,37.50
511.0,37.48
510.0,37.13
509.0,36.66
508.0,37.07
507.0,36.61
506.0,36.69
505.0,36.35
504.0,35.73
503.0,35.41
502.0,35.39
501.0,35.07
500.0,35.05
499.0,34.71
498.0,34.66
497.0,34.53
496.0,34.00
495.0,33.99
494.0,33.99
493.0,33.71
492.0,33.33
491.0,32.69
490.0,32.49
489.0,32.19
488.0,31.88
487.0,31.74
486.0,31.38
485.0,30.93
484.0,30.22
483.0,30.10
482.0,30.17
481.0,29.77
480.0,29.42
479.0,28.77
478.0,28.40
477.0,28.22
476.0,27.93
475.0,27.44
474.0,27.28
473.0,26.59
472.0,26.31
471.0,25.80
470.0,25.65
469.0,25.21
468.0,24.91
467.0,24.33
466.0,23.88
465.0,23.41
464.0,23.30
463.0,22.90
462.0,22.55
461.0,22.06
460.0,21.59
459.0,21.03
458.0,20.81
457.0,20.69
456.0,20.13
455.0,19.52
454.0,18.95
453.0,18.67
452.0,18.33
451.0,17.95
450.0,17.41
449.0,16.88
448.0,16.46
447.0,16.06
446.0,15.81
445.0,15.39
444.0,15.11
443.0,14.66
442.0,13.89
441.0,13.65
440.0,13.28
439.0,12.95
438.0,12.54
437.0,12.08
436.0,11.46
435.0,10.99
434.0,10.82
433.0,10.53
432.0,10.05
431.0,9.53
430.0,9.04
429.0,8.69
428.0,8.62
427.0,8.40
426.0,7.92
425.0,7.56
424.0,7.20
423.0,6.92
422.0,6.56
421.0,6.42
420.0,6.13
419.0,5.69
418.0,5.42
417.0,5.14
416.0,5.06
415.0,4.88
414.0,4.64
413.0,4.29
412.0,3.97
411.0,3.82
410.0,3.74
409.0,3.65
408.0,3.41
407.0,3.11
406.0,2.87
405.0,2.74
404.0,2.73
403.0,2.59
402.0,2.47
401.0,2.19
400.0,2.05
399.0,2.01
398.0,1.89
397.0,1.90
396.0,1.87
395.0,1.52
394.0,1.36
393.0,1.30
392.0,1.42
391.0,1.40
390.0,1.14
389.0,0.96
388.0,0.84
387.0,0.83
386.0,0.99
385.0,0.93
384.0,0.79
383.0,0.54
382.0,0.47
381.0,0.46
380.0,0.37
379.0,0.33
378.0,0.00
377.0,-0.26
376.0,-0.29
375.0,-0.29
374.0,-0.24
373.0,-0.06
372.0,-0.30
371.0,-0.15
370.0,-0.07
369.0,0.06
368.0,0.02
367.0,-0.24
366.0,-0.17
365.0,-0.09
364.0,-0.08
363.0,0.02
362.0,0.12
361.0,0.09
360.0,-0.11
359.0,-0.10
358.0,0.09
357.0,0.01
356.0,0.13
355.0,0.11
354.0,-0.25
353.0,-0.21
352.0,-0.02
351.0,-0.04
350.0,-0.14
349.0,-0.27
348.0,-0.13
347.0,0.08
346.0,0.35
345.0,0.22
344.0,-0.01
343.0,0.06
342.0,0.16
341.0,0.13
340.0,0.30
339.0,0.10
338.0,-0.04
337.0,0.41
336.0,0.37
335.0,0.17
334.0,-0.12
333.0,-0.38
332.0,0.10
331.0,0.59
330.0,0.30
329.0,0.33
328.0,0.54
327.0,0.35
326.0,-0.28
325.0,-0.37
324.0,0.29
323.0,0.52
322.0,0.16
321.0,-0.32
320.0,-0.30
319.0,-0.10
318.0,-0.00
317.0,0.03
316.0,0.00
315.0,-0.08
314.0,-0.18
313.0,-0.10
312.0,0.01
311.0,0.04
310.0,0.02
309.0,-0.09
308.0,-0.12
307.0,-0.09
306.0,0.05
305.0,0.07
304.0,0.02
303.0,-0.07
302.0,-0.16
301.0,-0.12
300.0,0.02
299.0,0.06
298.0,0.00
297.0,-0.15
296.0,-0.14
295.0,-0.08
294.0,0.03
293.0,0.08
292.0,0.00
291.0,-0.08
290.0,-0.12
289.0,-0.11
288.0,-0.03
287.0,0.08
286.0,0.05
285.0,-0.08
284.0,-0.10
283.0,-0.02
282.0,0.06
281.0,0.09
280.0,0.03
279.0,-0.07
278.0,-0.07
277.0,-0.03
276.0,0.11
275.0,0.10
274.0,0.02
273.0,-0.11
272.0,-0.11
271.0,-0.01
270.0,0.05
269.0,0.09
268.0,0.00
267.0,-0.06
266.0,-0.14
265.0,-0.10
264.0,0.06
263.0,0.14
262.0,0.06
261.0,-0.08
260.0,-0.12
259.0,-0.05
258.0,0.06
257.0,0.04
256.0,-0.02
255.0,-0.16
254.0,-0.19
253.0,-0.10
252.0,-0.02
251.0,-0.00
250.0,-0.11
249.0,-0.23
248.0,-0.26
247.0,-0.20
246.0,-0.14
245.0,-0.05
244.0,-0.14
243.0,-0.20
242.0,-0.28
241.0,-0.16
240.0,-0.04
239.0,-0.04
238.0,-0.10
237.0,-0.28
236.0,-0.28
235.0,-0.15
234.0,0.01
233.0,0.02
232.0,-0.09
231.0,-0.20
230.0,-0.18
229.0,-0.04
228.0,0.06
227.0,-0.03
226.0,-0.15
225.0,-0.16
224.0,-0.03
223.0,0.12
222.0,0.10
221.0,-0.02
220.0,-0.09
219.0,0.01
218.0,0.14
217.0,0.15
216.0,0.08
215.0,-0.01
214.0,-0.01
213.0,0.01
212.0,0.07
211.0,0.17
210.0,0.16
209.0,-0.02
208.0,-0.01
207.0,0.11
206.0,0.34
205.0,0.22
204.0,0.22
203.0,0.18
202.0,0.08
201.0,0.33
200.0,0.41
