Created as New Dataset,
nm,%T
800.0,58.98
799.0,60.14
798.0,59.38
797.0,60.00
796.0,59.66
795.0,59.98
794.0,60.63
793.0,59.68
792.0,59.45
791.0,58.86
790.0,58.77
789.0,59.22
788.0,58.80
787.0,59.45
786.0,60.19
785.0,60.77
784.0,58.70
783.0,58.79
782.0,58.50
781.0,58.36
780.0,57.99
779.0,58.97
778.0,59.24
777.0,58.85
776.0,58.10
775.0,58.93
774.0,58.49
773.0,58.65
772.0,58.62
771.0,58.28
770.0,58.16
769.0,58.56
768.0,57.94
767.0,58.21
766.0,58.93
765.0,58.41
764.0,57.02
763.0,58.00
762.0,57.81
761.0,57.81
760.0,58.05
759.0,57.88
758.0,56.68
757.0,56.72
756.0,56.43
755.0,56.65
754.0,56.72
753.0,56.55
752.0,55.87
751.0,55.88
750.0,56.47
749.0,57.40
748.0,56.89
747.0,55.85
746.0,55.65
745.0,55.84
744.0,55.23
743.0,55.32
742.0,55.18
741.0,55.12
740.0,56.12
739.0,55.60
738.0,55.38
737.0,55.56
736.0,55.00
735.0,55.40
734.0,55.23
733.0,54.96
732.0,55.05
731.0,55.41
730.0,55.16
729.0,54.72
728.0,54.81
727.0,55.07
726.0,55.33
725.0,55.46
724.0,55.01
723.0,54.53
722.0,53.88
721.0,54.50
720.0,54.71
719.0,55.18
718.0,54.60
717.0,54.27
716.0,53.79
715.0,53.32
714.0,53.77
713.0,53.60
712.0,53.98
711.0,53.82
710.0,53.72
709.0,53.70
708.0,53.44
707.0,53.61
706.0,53.45
705.0,53.15
704.0,52.88
703.0,52.61
702.0,52.17
701.0,52.52
700.0,52.83
699.0,52.89
698.0,53.12
697.0,52.44
696.0,52.61
695.0,52.68
694.0,52.33
693.0,52.52
692.0,52.74
691.0,52.24
690.0,52.26
689.0,52.02
688.0,52.04
687.0,52.04
686.0,51.60
685.0,51.62
684.0,51.69
683.0,51.82
682.0,51.37
681.0,50.93
680.0,50.79
679.0,50.89
678.0,50.79
677.0,50.64
676.0,50.91
675.0,50.87
674.0,50.68
673.0,50.20
672.0,50.41
671.0,50.37
670.0,50.39
669.0,50.62
668.0,50.10
667.0,49.89
666.0,49.97
665.0,49.45
664.0,49.37
663.0,49.74
662.0,49.50
661.0,49.35
660.0,49.24
659.0,48.89
658.0,48.83
657.0,48.72
656.0,48.60
655.0,48.39
654.0,48.56
653.0,48.58
652.0,48.42
651.0,48.25
650.0,48.13
649.0,48.32
648.0,48.40
647.0,48.00
646.0,47.42
645.0,47.58
644.0,47.79
643.0,47.50
642.0,47.55
641.0,47.46
640.0,46.98
639.0,46.79
638.0,46.88
637.0,46.89
636.0,46.79
635.0,46.56
634.0,46.55
633.0,46.29
632.0,46.30
631.0,46.32
630.0,45.98
629.0,45.75
628.0,45.83
627.0,46.04
626.0,45.76
625.0,45.39
624.0,45.19
623.0,45.21
622.0,45.15
621.0,45.05
620.0,44.82
619.0,44.66
618.0,44.53
617.0,44.82
616.0,44.60
615.0,44.17
614.0,44.09
613.0,43.80
612.0,44.06
611.0,43.88
610.0,43.57
609.0,43.50
608.0,43.60
607.0,43.60
606.0,43.54
605.0,43.25
604.0,43.25
603.0,43.03
602.0,42.81
601.0,42.91
600.0,42.61
599.0,42.35
598.0,42.13
597.0,42.13
596.0,42.06
595.0,41.97
594.0,41.91
593.0,41.50
592.0,41.60
591.0,41.68
590.0,41.27
589.0,40.81
588.0,40.83
587.0,40.87
586.0,40.86
585.0,40.79
584.0,40.36
583.0,40.21
582.0,40.29
581.0,40.24
580.0,39.80
579.0,39.54
578.0,39.40
577.0,39.32
576.0,39.40
575.0,39.39
574.0,39.20
573.0,38.82
572.0,38.81
571.0,38.61
570.0,38.35
569.0,38.43
568.0,38.12
567.0,37.93
566.0,37.77
565.0,37.69
564.0,37.71
563.0,37.53
562.0,37.51
561.0,37.22
560.0,37.16
559.0,36.73
558.0,36.61
557.0,36.48
556.0,36.53
555.0,36.39
554.0,36.02
553.0,35.80
552.0,35.57
551.0,35.62
550.0,35.42
549.0,35.37
548.0,35.06
547.0,34.76
546.0,34.55
545.0,34.74
544.0,34.40
543.0,34.38
542.0,34.03
541.0,33.97
540.0,33.69
539.0,33.72
538.0,33.62
537.0,33.37
536.0,33.05
535.0,32.96
534.0,32.94
533.0,32.72
532.0,32.42
531.0,32.15
530.0,31.80
529.0,31.89
528.0,31.91
527.0,31.67
526.0,31.43
525.0,31.17
524.0,31.16
523.0,31.08
522.0,30.73
521.0,30.59
520.0,30.54
519.0,30.26
518.0,30.29
517.0,29.84
516.0,29.68
515.0,29.48
514.0,29.55
513.0,29.38
512.0,29.06
511.0,28.60
510.0,28.38
509.0,28.31
508.0,28.34
507.0,28.18
506.0,27.91
505.0,27.43
504.0,27.06
503.0,27.32
502.0,27.29
501.0,26.64
500.0,26.32
499.0,25.71
498.0,25.92
497.0,25.68
496.0,25.34
495.0,24.75
494.0,24.72
493.0,24.30
492.0,24.38
491.0,23.64
490.0,23.32
489.0,22.98
488.0,22.76
487.0,22.57
486.0,22.32
485.0,21.77
484.0,21.20
483.0,21.07
482.0,20.78
481.0,20.39
480.0,20.14
479.0,19.68
478.0,19.43
477.0,19.18
476.0,18.75
475.0,18.22
474.0,17.96
473.0,17.71
472.0,17.52
471.0,16.99
470.0,16.62
469.0,15.85
468.0,15.99
467.0,15.73
466.0,15.31
465.0,14.75
464.0,14.40
463.0,14.02
462.0,13.81
461.0,13.47
460.0,13.16
459.0,12.75
458.0,12.36
457.0,12.14
456.0,11.94
455.0,11.45
454.0,10.90
453.0,10.50
452.0,10.44
451.0,10.09
450.0,9.81
449.0,9.52
448.0,8.89
447.0,8.60
446.0,8.56
445.0,8.21
444.0,7.81
443.0,7.25
442.0,7.07
441.0,6.87
440.0,6.77
439.0,6.44
438.0,6.05
437.0,5.71
436.0,5.54
435.0,5.29
434.0,5.12
433.0,4.96
432.0,4.47
431.0,4.21
430.0,3.98
429.0,4.03
428.0,3.97
427.0,3.58
426.0,3.27
425.0,3.08
424.0,3.00
423.0,2.82
422.0,2.83
421.0,2.56
420.0,2.25
419.0,2.20
418.0,2.15
417.0,2.15
416.0,2.03
415.0,1.75
414.0,1.53
413.0,1.43
412.0,1.49
411.0,1.49
410.0,1.28
409.0,1.13
408.0,1.02
407.0,1.03
406.0,1.07
405.0,1.02
404.0,0.91
403.0,0.79
402.0,0.70
401.0,0.69
400.0,0.80
399.0,0.71
398.0,0.62
397.0,0.40
396.0,0.35
395.0,0.38
394.0,0.47
393.0,0.47
392.0,0.42
391.0,0.27
390.0,0.16
389.0,0.16
388.0,0.27
387.0,0.30
386.0,0.28
385.0,0.19
384.0,0.01
383.0,-0.01
382.0,0.07
381.0,0.10
380.0,0.10
379.0,0.02
378.0,-0.30
377.0,-0.50
376.0,-0.44
375.0,-0.57
374.0,-0.23
373.0,-0.31
372.0,-0.16
371.0,-0.21
370.0,-0.23
369.0,-0.28
368.0,-0.04
367.0,-0.02
366.0,-0.07
365.0,-0.15
364.0,-0.19
363.0,-0.01
362.0,0.04
361.0,0.05
360.0,0.04
359.0,-0.11
358.0,-0.22
357.0,-0.17
356.0,-0.12
355.0,-0.01
354.0,0.11
353.0,0.06
352.0,0.18
351.0,0.02
350.0,-0.23
349.0,-0.29
348.0,-0.33
347.0,0.01
346.0,0.19
345.0,-0.02
344.0,-0.17
343.0,-0.13
342.0,0.02
341.0,-0.11
340.0,-0.22
339.0,-0.16
338.0,0.08
337.0,0.36
336.0,0.20
335.0,0.14
334.0,-0.15
333.0,-0.44
332.0,0.04
331.0,-0.04
330.0,-0.04
329.0,0.09
328.0,-0.06
327.0,0.16
326.0,0.28
325.0,-0.16
324.0,-0.39
323.0,-0.43
322.0,-0.01
321.0,0.19
320.0,-0.22
319.0,2.10
318.0,3.94
317.0,3.86
316.0,3.83
315.0,3.94
314.0,4.02
313.0,3.94
312.0,3.81
311.0,3.92
310.0,4.06
309.0,3.96
308.0,3.79
307.0,3.85
306.0,4.01
305.0,3.97
304.0,3.84
303.0,3.78
302.0,3.91
301.0,3.94
300.0,3.81
299.0,3.77
298.0,3.92
297.0,3.99
296.0,3.84
295.0,3.72
294.0,3.83
293.0,3.93
292.0,3.87
291.0,3.73
290.0,3.80
289.0,3.94
288.0,3.90
287.0,3.77
286.0,3.70
285.0,3.88
284.0,3.90
283.0,3.80
282.0,3.80
281.0,3.89
280.0,3.99
279.0,3.91
278.0,3.76
277.0,3.82
276.0,3.81
275.0,3.89
274.0,3.82
273.0,3.75
272.0,3.78
271.0,3.85
270.0,3.88
269.0,3.80
268.0,3.75
267.0,3.87
266.0,3.98
265.0,3.86
264.0,3.77
263.0,3.82
262.0,3.93
261.0,3.85
260.0,3.71
259.0,3.79
258.0,3.91
257.0,3.82
256.0,3.69
255.0,3.62
254.0,3.78
253.0,3.82
252.0,3.71
251.0,3.62
250.0,3.65
249.0,3.77
248.0,3.75
247.0,3.63
246.0,3.56
245.0,3.65
244.0,3.80
243.0,3.59
242.0,3.55
241.0,3.66
240.0,3.80
239.0,3.69
238.0,3.51
237.0,3.60
236.0,3.77
235.0,3.72
234.0,3.63
233.0,3.57
232.0,3.79
231.0,3.81
230.0,3.67
229.0,3.57
228.0,3.71
227.0,3.87
226.0,3.74
225.0,3.65
224.0,3.83
223.0,3.85
222.0,3.80
221.0,3.75
220.0,3.79
219.0,3.80
218.0,3.91
217.0,3.73
216.0,3.71
215.0,3.75
214.0,3.92
213.0,3.95
212.0,3.65
211.0,3.67
210.0,3.90
209.0,3.91
208.0,3.81
207.0,3.67
206.0,3.83
205.0,3.82
204.0,4.08
203.0,3.86
202.0,3.77
201.0,4.00
200.0,4.02
