Created as New Dataset,
nm,%T
800.0,14.32
799.0,14.44
798.0,14.24
797.0,14.38
796.0,14.29
795.0,14.35
794.0,14.34
793.0,14.19
792.0,14.15
791.0,14.20
790.0,14.21
789.0,14.14
788.0,14.20
787.0,14.25
786.0,14.17
785.0,14.20
784.0,14.16
783.0,14.12
782.0,14.07
781.0,14.17
780.0,14.20
779.0,13.98
778.0,13.95
777.0,13.99
776.0,14.05
775.0,13.96
774.0,13.94
773.0,13.93
772.0,13.91
771.0,13.96
770.0,13.89
769.0,13.97
768.0,13.95
767.0,13.87
766.0,14.02
765.0,13.99
764.0,13.83
763.0,13.83
762.0,13.84
761.0,13.79
760.0,13.77
759.0,13.67
758.0,13.68
757.0,13.75
756.0,13.78
755.0,13.70
754.0,13.75
753.0,13.73
752.0,13.70
751.0,13.65
750.0,13.67
749.0,13.66
748.0,13.58
747.0,13.59
746.0,13.51
745.0,13.49
744.0,13.56
743.0,13.47
742.0,13.50
741.0,13.47
740.0,13.46
739.0,13.50
738.0,13.43
737.0,13.36
736.0,13.32
735.0,13.41
734.0,13.38
733.0,13.37
732.0,13.34
731.0,13.36
730.0,13.34
729.0,13.36
728.0,13.28
727.0,13.24
726.0,13.30
725.0,13.27
724.0,13.25
723.0,13.26
722.0,13.19
721.0,13.16
720.0,13.18
719.0,13.18
718.0,13.12
717.0,13.17
716.0,13.11
715.0,13.08
714.0,13.02
713.0,13.10
712.0,13.09
711.0,13.00
710.0,12.98
709.0,13.03
708.0,13.02
707.0,12.97
706.0,12.93
705.0,12.99
704.0,12.94
703.0,12.94
702.0,12.96
701.0,12.88
700.0,12.85
699.0,12.90
698.0,12.86
697.0,12.85
696.0,12.83
695.0,12.78
694.0,12.80
693.0,12.77
692.0,12.74
691.0,12.74
690.0,12.70
689.0,12.74
688.0,12.68
687.0,12.61
686.0,12.63
685.0,12.66
684.0,12.63
683.0,12.60
682.0,12.60
681.0,12.59
680.0,12.58
679.0,12.55
678.0,12.53
677.0,12.53
676.0,12.49
675.0,12.47
674.0,12.47
673.0,12.46
672.0,12.40
671.0,12.43
670.0,12.44
669.0,12.41
668.0,12.39
667.0,12.34
666.0,12.34
665.0,12.33
664.0,12.32
663.0,12.29
662.0,12.22
661.0,12.24
660.0,12.26
659.0,12.23
658.0,12.21
657.0,12.18
656.0,12.18
655.0,12.16
654.0,12.14
653.0,12.13
652.0,12.12
651.0,12.11
650.0,12.11
649.0,12.08
648.0,12.07
647.0,12.07
646.0,12.00
645.0,11.97
644.0,12.00
643.0,11.96
642.0,11.96
641.0,11.97
640.0,11.95
639.0,11.95
638.0,11.94
637.0,11.89
636.0,11.84
635.0,11.84
634.0,11.83
633.0,11.84
632.0,11.82
631.0,11.76
630.0,11.73
629.0,11.75
628.0,11.75
627.0,11.74
626.0,11.72
625.0,11.68
624.0,11.67
623.0,11.67
622.0,11.66
621.0,11.64
620.0,11.60
619.0,11.58
618.0,11.60
617.0,11.61
616.0,11.56
615.0,11.52
614.0,11.49
613.0,11.48
612.0,11.47
611.0,11.46
610.0,11.47
609.0,11.48
608.0,11.45
607.0,11.40
606.0,11.41
605.0,11.39
604.0,11.37
603.0,11.37
602.0,11.33
601.0,11.31
600.0,11.29
599.0,11.28
598.0,11.27
597.0,11.29
596.0,11.28
595.0,11.24
594.0,11.23
593.0,11.24
592.0,11.20
591.0,11.19
590.0,11.17
589.0,11.16
588.0,11.13
587.0,11.10
586.0,11.13
585.0,11.10
584.0,11.08
583.0,11.06
582.0,11.03
581.0,11.02
580.0,11.04
579.0,11.00
578.0,10.98
577.0,10.96
576.0,10.94
575.0,10.94
574.0,10.91
573.0,10.89
572.0,10.91
571.0,10.91
570.0,10.88
569.0,10.81
568.0,10.81
567.0,10.83
566.0,10.84
565.0,10.83
564.0,10.82
563.0,10.77
562.0,10.76
561.0,10.71
560.0,10.70
559.0,10.70
558.0,10.68
557.0,10.66
556.0,10.66
555.0,10.64
554.0,10.63
553.0,10.61
552.0,10.61
551.0,10.56
550.0,10.58
549.0,10.56
548.0,10.51
547.0,10.46
546.0,10.47
545.0,10.45
544.0,10.43
543.0,10.45
542.0,10.42
541.0,10.39
540.0,10.38
539.0,10.36
538.0,10.31
537.0,10.30
536.0,10.29
535.0,10.26
534.0,10.21
533.0,10.18
532.0,10.15
531.0,10.13
530.0,10.11
529.0,10.06
528.0,10.01
527.0,9.95
526.0,9.88
525.0,9.83
524.0,9.74
523.0,9.68
522.0,9.60
521.0,9.50
520.0,9.37
519.0,9.26
518.0,9.11
517.0,8.95
516.0,8.82
515.0,8.59
514.0,8.39
513.0,8.18
512.0,7.88
511.0,7.59
510.0,7.25
509.0,6.92
508.0,6.55
507.0,6.14
506.0,5.68
505.0,5.24
504.0,4.77
503.0,4.29
502.0,3.78
501.0,3.28
500.0,2.79
499.0,2.37
498.0,1.94
497.0,1.55
496.0,1.21
495.0,0.92
494.0,0.69
493.0,0.50
492.0,0.36
491.0,0.26
490.0,0.19
489.0,0.14
488.0,0.12
487.0,0.09
486.0,0.09
485.0,0.08
484.0,0.08
483.0,0.08
482.0,0.07
481.0,0.07
480.0,0.08
479.0,0.09
478.0,0.09
477.0,0.08
476.0,0.08
475.0,0.09
474.0,0.09
473.0,0.09
472.0,0.09
471.0,0.09
470.0,0.09
469.0,0.10
468.0,0.09
467.0,0.09
466.0,0.09
465.0,0.10
464.0,0.10
463.0,0.10
462.0,0.09
461.0,0.09
460.0,0.10
459.0,0.10
458.0,0.10
457.0,0.09
456.0,0.09
455.0,0.10
454.0,0.10
453.0,0.09
452.0,0.09
451.0,0.09
450.0,0.10
449.0,0.10
448.0,0.09
447.0,0.08
446.0,0.09
445.0,0.10
444.0,0.10
443.0,0.09
442.0,0.09
441.0,0.09
440.0,0.09
439.0,0.10
438.0,0.09
437.0,0.09
436.0,0.10
435.0,0.10
434.0,0.09
433.0,0.09
432.0,0.09
431.0,0.10
430.0,0.10
429.0,0.09
428.0,0.09
427.0,0.10
426.0,0.10
425.0,0.10
424.0,0.09
423.0,0.09
422.0,0.10
421.0,0.10
420.0,0.09
419.0,0.09
418.0,0.10
417.0,0.10
416.0,0.11
415.0,0.10
414.0,0.10
413.0,0.10
412.0,0.11
411.0,0.10
410.0,0.10
409.0,0.10
408.0,0.11
407.0,0.11
406.0,0.10
405.0,0.10
404.0,0.11
403.0,0.12
402.0,0.13
401.0,0.16
400.0,0.20
399.0,0.29
398.0,0.43
397.0,0.61
396.0,0.85
395.0,1.16
394.0,1.51
393.0,1.89
392.0,2.29
391.0,2.68
390.0,3.05
389.0,3.35
388.0,3.59
387.0,3.78
386.0,3.88
385.0,3.86
384.0,3.79
383.0,3.68
382.0,3.51
381.0,3.26
380.0,2.97
379.0,2.62
378.0,2.25
377.0,1.92
376.0,1.65
375.0,1.44
374.0,1.17
373.0,0.90
372.0,0.66
371.0,0.50
370.0,0.39
369.0,0.28
368.0,0.22
367.0,0.17
366.0,0.13
365.0,0.13
364.0,0.11
363.0,0.10
362.0,0.11
361.0,0.12
360.0,0.12
359.0,0.11
358.0,0.12
357.0,0.13
356.0,0.13
355.0,0.13
354.0,0.13
353.0,0.15
352.0,0.15
351.0,0.14
350.0,0.15
349.0,0.15
348.0,0.15
347.0,0.14
346.0,0.15
345.0,0.15
344.0,0.15
343.0,0.15
342.0,0.16
341.0,0.15
340.0,0.15
339.0,0.15
338.0,0.16
337.0,0.15
336.0,0.15
335.0,0.17
334.0,0.18
333.0,0.16
332.0,0.13
331.0,0.16
330.0,0.17
329.0,0.14
328.0,0.14
327.0,0.17
326.0,0.15
325.0,0.15
324.0,0.15
323.0,0.11
322.0,0.13
321.0,0.14
320.0,0.16
319.0,0.20
318.0,0.21
317.0,0.20
316.0,0.21
315.0,0.21
314.0,0.22
313.0,0.21
312.0,0.21
311.0,0.22
310.0,0.22
309.0,0.22
308.0,0.22
307.0,0.22
306.0,0.23
305.0,0.22
304.0,0.22
303.0,0.23
302.0,0.23
301.0,0.23
300.0,0.23
299.0,0.24
298.0,0.23
297.0,0.23
296.0,0.23
295.0,0.24
294.0,0.25
293.0,0.24
292.0,0.24
291.0,0.25
290.0,0.25
289.0,0.25
288.0,0.25
287.0,0.25
286.0,0.26
285.0,0.25
284.0,0.25
283.0,0.26
282.0,0.26
281.0,0.26
280.0,0.26
279.0,0.27
278.0,0.28
277.0,0.27
276.0,0.27
275.0,0.28
274.0,0.28
273.0,0.27
272.0,0.26
271.0,0.27
270.0,0.27
269.0,0.26
268.0,0.26
267.0,0.26
266.0,0.26
265.0,0.25
264.0,0.25
263.0,0.25
262.0,0.26
261.0,0.25
260.0,0.24
259.0,0.24
258.0,0.25
257.0,0.24
256.0,0.23
255.0,0.24
254.0,0.24
253.0,0.23
252.0,0.23
251.0,0.22
250.0,0.23
249.0,0.23
248.0,0.22
247.0,0.22
246.0,0.23
245.0,0.23
244.0,0.22
243.0,0.22
242.0,0.23
241.0,0.22
240.0,0.22
239.0,0.23
238.0,0.23
237.0,0.23
236.0,0.22
235.0,0.23
234.0,0.23
233.0,0.23
232.0,0.23
231.0,0.24
230.0,0.25
229.0,0.24
228.0,0.24
227.0,0.25
226.0,0.25
225.0,0.25
224.0,0.25
223.0,0.26
222.0,0.26
221.0,0.26
220.0,0.26
219.0,0.27
218.0,0.28
217.0,0.27
216.0,0.28
215.0,0.29
214.0,0.30
213.0,0.30
212.0,0.31
211.0,0.32
210.0,0.34
209.0,0.36
208.0,0.38
207.0,0.41
206.0,0.41
205.0,0.42
204.0,0.44
203.0,0.46
202.0,0.46
201.0,0.47
200.0,0.49
