Created as New Dataset,
nm,%T
800.0,12.97
799.0,12.90
798.0,12.94
797.0,13.10
796.0,12.87
795.0,13.04
794.0,13.05
793.0,12.91
792.0,12.97
791.0,12.93
790.0,12.80
789.0,12.80
788.0,12.81
787.0,12.90
786.0,12.87
785.0,12.63
784.0,12.75
783.0,12.68
782.0,12.67
781.0,12.68
780.0,12.68
779.0,12.61
778.0,12.57
777.0,12.60
776.0,12.55
775.0,12.53
774.0,12.54
773.0,12.59
772.0,12.55
771.0,12.51
770.0,12.50
769.0,12.48
768.0,12.41
767.0,12.46
766.0,12.48
765.0,12.50
764.0,12.41
763.0,12.39
762.0,12.37
761.0,12.28
760.0,12.32
759.0,12.39
758.0,12.36
757.0,12.32
756.0,12.35
755.0,12.30
754.0,12.30
753.0,12.25
752.0,12.20
751.0,12.29
750.0,12.23
749.0,12.20
748.0,12.10
747.0,12.22
746.0,12.19
745.0,12.06
744.0,12.08
743.0,12.07
742.0,12.14
741.0,12.02
740.0,11.99
739.0,12.04
738.0,12.03
737.0,11.98
736.0,11.92
735.0,11.96
734.0,11.97
733.0,11.97
732.0,11.86
731.0,11.90
730.0,11.93
729.0,11.92
728.0,11.86
727.0,11.84
726.0,11.86
725.0,11.84
724.0,11.81
723.0,11.77
722.0,11.76
721.0,11.70
720.0,11.71
719.0,11.75
718.0,11.72
717.0,11.71
716.0,11.66
715.0,11.68
714.0,11.59
713.0,11.58
712.0,11.58
711.0,11.56
710.0,11.53
709.0,11.56
708.0,11.56
707.0,11.53
706.0,11.54
705.0,11.56
704.0,11.48
703.0,11.46
702.0,11.44
701.0,11.43
700.0,11.38
699.0,11.40
698.0,11.41
697.0,11.41
696.0,11.41
695.0,11.36
694.0,11.33
693.0,11.32
692.0,11.30
691.0,11.25
690.0,11.22
689.0,11.22
688.0,11.20
687.0,11.18
686.0,11.18
685.0,11.18
684.0,11.17
683.0,11.15
682.0,11.11
681.0,11.09
680.0,11.07
679.0,11.06
678.0,11.04
677.0,11.02
676.0,11.00
675.0,10.99
674.0,10.99
673.0,10.96
672.0,10.96
671.0,10.97
670.0,10.97
669.0,10.94
668.0,10.88
667.0,10.87
666.0,10.89
665.0,10.89
664.0,10.85
663.0,10.83
662.0,10.78
661.0,10.80
660.0,10.82
659.0,10.75
658.0,10.73
657.0,10.73
656.0,10.73
655.0,10.71
654.0,10.67
653.0,10.64
652.0,10.62
651.0,10.65
650.0,10.65
649.0,10.61
648.0,10.58
647.0,10.54
646.0,10.56
645.0,10.54
644.0,10.52
643.0,10.50
642.0,10.44
641.0,10.42
640.0,10.44
639.0,10.46
638.0,10.43
637.0,10.37
636.0,10.34
635.0,10.33
634.0,10.33
633.0,10.33
632.0,10.31
631.0,10.30
630.0,10.27
629.0,10.23
628.0,10.23
627.0,10.26
626.0,10.23
625.0,10.22
624.0,10.21
623.0,10.19
622.0,10.15
621.0,10.15
620.0,10.14
619.0,10.12
618.0,10.08
617.0,10.07
616.0,10.08
615.0,10.05
614.0,10.03
613.0,10.01
612.0,9.97
611.0,9.97
610.0,9.98
609.0,9.96
608.0,9.94
607.0,9.91
606.0,9.89
605.0,9.88
604.0,9.87
603.0,9.88
602.0,9.87
601.0,9.85
600.0,9.84
599.0,9.82
598.0,9.82
597.0,9.82
596.0,9.78
595.0,9.75
594.0,9.73
593.0,9.72
592.0,9.71
591.0,9.69
590.0,9.67
589.0,9.66
588.0,9.65
587.0,9.62
586.0,9.62
585.0,9.59
584.0,9.57
583.0,9.55
582.0,9.53
581.0,9.52
580.0,9.52
579.0,9.50
578.0,9.50
577.0,9.49
576.0,9.45
575.0,9.43
574.0,9.45
573.0,9.44
572.0,9.43
571.0,9.40
570.0,9.36
569.0,9.35
568.0,9.35
567.0,9.30
566.0,9.30
565.0,9.32
564.0,9.33
563.0,9.27
562.0,9.26
561.0,9.23
560.0,9.19
559.0,9.17
558.0,9.17
557.0,9.15
556.0,9.13
555.0,9.11
554.0,9.12
553.0,9.09
552.0,9.08
551.0,9.04
550.0,9.08
549.0,9.06
548.0,9.02
547.0,8.98
546.0,8.96
545.0,8.95
544.0,8.93
543.0,8.93
542.0,8.95
541.0,8.90
540.0,8.88
539.0,8.85
538.0,8.83
537.0,8.80
536.0,8.80
535.0,8.77
534.0,8.73
533.0,8.70
532.0,8.68
531.0,8.66
530.0,8.63
529.0,8.63
528.0,8.57
527.0,8.50
526.0,8.46
525.0,8.44
524.0,8.38
523.0,8.31
522.0,8.26
521.0,8.17
520.0,8.11
519.0,8.02
518.0,7.93
517.0,7.85
516.0,7.74
515.0,7.59
514.0,7.46
513.0,7.30
512.0,7.10
511.0,6.90
510.0,6.70
509.0,6.46
508.0,6.19
507.0,5.90
506.0,5.59
505.0,5.24
504.0,4.88
503.0,4.50
502.0,4.12
501.0,3.71
500.0,3.32
499.0,2.91
498.0,2.49
497.0,2.13
496.0,1.78
495.0,1.43
494.0,1.14
493.0,0.89
492.0,0.68
491.0,0.52
490.0,0.38
489.0,0.28
488.0,0.20
487.0,0.16
486.0,0.14
485.0,0.11
484.0,0.09
483.0,0.09
482.0,0.09
481.0,0.09
480.0,0.08
479.0,0.08
478.0,0.09
477.0,0.10
476.0,0.10
475.0,0.09
474.0,0.09
473.0,0.10
472.0,0.10
471.0,0.10
470.0,0.09
469.0,0.09
468.0,0.10
467.0,0.11
466.0,0.11
465.0,0.10
464.0,0.10
463.0,0.10
462.0,0.11
461.0,0.11
460.0,0.10
459.0,0.09
458.0,0.10
457.0,0.11
456.0,0.10
455.0,0.10
454.0,0.10
453.0,0.10
452.0,0.10
451.0,0.11
450.0,0.10
449.0,0.09
448.0,0.10
447.0,0.11
446.0,0.10
445.0,0.10
444.0,0.09
443.0,0.10
442.0,0.10
441.0,0.10
440.0,0.09
439.0,0.09
438.0,0.10
437.0,0.10
436.0,0.10
435.0,0.09
434.0,0.10
433.0,0.10
432.0,0.10
431.0,0.09
430.0,0.09
429.0,0.10
428.0,0.11
427.0,0.10
426.0,0.10
425.0,0.10
424.0,0.11
423.0,0.11
422.0,0.10
421.0,0.10
420.0,0.10
419.0,0.11
418.0,0.10
417.0,0.10
416.0,0.10
415.0,0.11
414.0,0.11
413.0,0.10
412.0,0.10
411.0,0.11
410.0,0.11
409.0,0.11
408.0,0.10
407.0,0.11
406.0,0.12
405.0,0.12
404.0,0.13
403.0,0.16
402.0,0.20
401.0,0.27
400.0,0.37
399.0,0.51
398.0,0.72
397.0,0.98
396.0,1.25
395.0,1.57
394.0,1.92
393.0,2.29
392.0,2.63
391.0,2.95
390.0,3.22
389.0,3.46
388.0,3.66
387.0,3.79
386.0,3.85
385.0,3.83
384.0,3.79
383.0,3.71
382.0,3.60
381.0,3.39
380.0,3.16
379.0,2.87
378.0,2.59
377.0,2.34
376.0,2.05
375.0,1.82
374.0,1.55
373.0,1.26
372.0,1.05
371.0,0.85
370.0,0.66
369.0,0.50
368.0,0.37
367.0,0.28
366.0,0.22
365.0,0.16
364.0,0.15
363.0,0.13
362.0,0.12
361.0,0.13
360.0,0.13
359.0,0.12
358.0,0.13
357.0,0.13
356.0,0.12
355.0,0.14
354.0,0.12
353.0,0.12
352.0,0.14
351.0,0.15
350.0,0.15
349.0,0.15
348.0,0.15
347.0,0.15
346.0,0.14
345.0,0.15
344.0,0.14
343.0,0.14
342.0,0.17
341.0,0.17
340.0,0.15
339.0,0.14
338.0,0.16
337.0,0.18
336.0,0.17
335.0,0.15
334.0,0.16
333.0,0.15
332.0,0.17
331.0,0.18
330.0,0.16
329.0,0.15
328.0,0.14
327.0,0.14
326.0,0.15
325.0,0.15
324.0,0.16
323.0,0.14
322.0,0.16
321.0,0.15
320.0,0.12
319.0,0.18
318.0,0.23
317.0,0.24
316.0,0.24
315.0,0.23
314.0,0.24
313.0,0.25
312.0,0.25
311.0,0.25
310.0,0.24
309.0,0.24
308.0,0.25
307.0,0.25
306.0,0.25
305.0,0.25
304.0,0.25
303.0,0.25
302.0,0.26
301.0,0.26
300.0,0.26
299.0,0.26
298.0,0.26
297.0,0.27
296.0,0.28
295.0,0.27
294.0,0.27
293.0,0.27
292.0,0.28
291.0,0.28
290.0,0.28
289.0,0.27
288.0,0.28
287.0,0.28
286.0,0.29
285.0,0.29
284.0,0.28
283.0,0.29
282.0,0.29
281.0,0.30
280.0,0.29
279.0,0.29
278.0,0.31
277.0,0.31
276.0,0.31
275.0,0.31
274.0,0.31
273.0,0.31
272.0,0.30
271.0,0.29
270.0,0.29
269.0,0.29
268.0,0.29
267.0,0.28
266.0,0.28
265.0,0.28
264.0,0.29
263.0,0.28
262.0,0.27
261.0,0.28
260.0,0.28
259.0,0.27
258.0,0.26
257.0,0.27
256.0,0.27
255.0,0.27
254.0,0.26
253.0,0.26
252.0,0.27
251.0,0.26
250.0,0.25
249.0,0.25
248.0,0.26
247.0,0.26
246.0,0.26
245.0,0.25
244.0,0.26
243.0,0.26
242.0,0.25
241.0,0.25
240.0,0.25
239.0,0.26
238.0,0.26
237.0,0.25
236.0,0.25
235.0,0.26
234.0,0.27
233.0,0.26
232.0,0.26
231.0,0.27
230.0,0.27
229.0,0.27
228.0,0.27
227.0,0.27
226.0,0.28
225.0,0.29
224.0,0.28
223.0,0.28
222.0,0.29
221.0,0.30
220.0,0.30
219.0,0.29
218.0,0.30
217.0,0.32
216.0,0.32
215.0,0.32
214.0,0.32
213.0,0.34
212.0,0.36
211.0,0.37
210.0,0.38
209.0,0.40
208.0,0.42
207.0,0.45
206.0,0.46
205.0,0.48
204.0,0.49
203.0,0.50
202.0,0.52
201.0,0.52
200.0,0.54
