Created as New Dataset,
nm,%T
800.0,0.06
799.0,0.06
798.0,0.03
797.0,0.04
796.0,0.06
795.0,0.05
794.0,0.05
793.0,0.04
792.0,0.07
791.0,0.05
790.0,0.04
789.0,0.04
788.0,0.07
787.0,0.05
786.0,0.06
785.0,0.05
784.0,0.05
783.0,0.06
782.0,0.05
781.0,0.05
780.0,0.04
779.0,0.05
778.0,0.05
777.0,0.05
776.0,0.06
775.0,0.05
774.0,0.05
773.0,0.05
772.0,0.05
771.0,0.05
770.0,0.06
769.0,0.04
768.0,0.06
767.0,0.04
766.0,0.05
765.0,0.05
764.0,0.05
763.0,0.05
762.0,0.06
761.0,0.05
760.0,0.06
759.0,0.05
758.0,0.06
757.0,0.06
756.0,0.05
755.0,0.05
754.0,0.06
753.0,0.07
752.0,0.06
751.0,0.05
750.0,0.06
749.0,0.06
748.0,0.06
747.0,0.05
746.0,0.05
745.0,0.06
744.0,0.07
743.0,0.07
742.0,0.06
741.0,0.06
740.0,0.06
739.0,0.06
738.0,0.06
737.0,0.05
736.0,0.05
735.0,0.06
734.0,0.06
733.0,0.06
732.0,0.05
731.0,0.06
730.0,0.06
729.0,0.06
728.0,0.05
727.0,0.05
726.0,0.05
725.0,0.06
724.0,0.06
723.0,0.05
722.0,0.05
721.0,0.05
720.0,0.06
719.0,0.06
718.0,0.05
717.0,0.05
716.0,0.06
715.0,0.06
714.0,0.06
713.0,0.05
712.0,0.05
711.0,0.06
710.0,0.06
709.0,0.06
708.0,0.06
707.0,0.05
706.0,0.06
705.0,0.07
704.0,0.05
703.0,0.05
702.0,0.05
701.0,0.05
700.0,0.06
699.0,0.06
698.0,0.06
697.0,0.05
696.0,0.05
695.0,0.06
694.0,0.06
693.0,0.06
692.0,0.06
691.0,0.06
690.0,0.06
689.0,0.06
688.0,0.05
687.0,0.05
686.0,0.06
685.0,0.06
684.0,0.06
683.0,0.06
682.0,0.06
681.0,0.06
680.0,0.06
679.0,0.06
678.0,0.05
677.0,0.05
676.0,0.06
675.0,0.06
674.0,0.05
673.0,0.05
672.0,0.05
671.0,0.06
670.0,0.06
669.0,0.06
668.0,0.05
667.0,0.05
666.0,0.06
665.0,0.06
664.0,0.06
663.0,0.06
662.0,0.05
661.0,0.06
660.0,0.06
659.0,0.06
658.0,0.06
657.0,0.05
656.0,0.05
655.0,0.06
654.0,0.06
653.0,0.06
652.0,0.05
651.0,0.05
650.0,0.06
649.0,0.06
648.0,0.06
647.0,0.05
646.0,0.05
645.0,0.06
644.0,0.06
643.0,0.06
642.0,0.06
641.0,0.05
640.0,0.06
639.0,0.06
638.0,0.06
637.0,0.06
636.0,0.05
635.0,0.06
634.0,0.06
633.0,0.06
632.0,0.06
631.0,0.05
630.0,0.05
629.0,0.06
628.0,0.06
627.0,0.06
626.0,0.06
625.0,0.05
624.0,0.05
623.0,0.06
622.0,0.06
621.0,0.06
620.0,0.05
619.0,0.05
618.0,0.05
617.0,0.06
616.0,0.06
615.0,0.06
614.0,0.05
613.0,0.05
612.0,0.06
611.0,0.06
610.0,0.06
609.0,0.05
608.0,0.05
607.0,0.06
606.0,0.06
605.0,0.05
604.0,0.05
603.0,0.06
602.0,0.06
601.0,0.06
600.0,0.05
599.0,0.05
598.0,0.06
597.0,0.06
596.0,0.06
595.0,0.06
594.0,0.05
593.0,0.06
592.0,0.06
591.0,0.06
590.0,0.06
589.0,0.05
588.0,0.05
587.0,0.06
586.0,0.06
585.0,0.06
584.0,0.05
583.0,0.05
582.0,0.06
581.0,0.06
580.0,0.06
579.0,0.05
578.0,0.05
577.0,0.06
576.0,0.06
575.0,0.06
574.0,0.05
573.0,0.05
572.0,0.06
571.0,0.06
570.0,0.06
569.0,0.05
568.0,0.06
567.0,0.06
566.0,0.06
565.0,0.06
564.0,0.05
563.0,0.06
562.0,0.05
561.0,0.05
560.0,0.06
559.0,0.06
558.0,0.06
557.0,0.05
556.0,0.05
555.0,0.06
554.0,0.06
553.0,0.05
552.0,0.05
551.0,0.06
550.0,0.06
549.0,0.05
548.0,0.05
547.0,0.06
546.0,0.06
545.0,0.06
544.0,0.05
543.0,0.05
542.0,0.06
541.0,0.06
540.0,0.05
539.0,0.05
538.0,0.06
537.0,0.06
536.0,0.06
535.0,0.05
534.0,0.05
533.0,0.06
532.0,0.06
531.0,0.06
530.0,0.06
529.0,0.05
528.0,0.06
527.0,0.07
526.0,0.06
525.0,0.06
524.0,0.06
523.0,0.06
522.0,0.07
521.0,0.07
520.0,0.06
519.0,0.06
518.0,0.07
517.0,0.07
516.0,0.07
515.0,0.06
514.0,0.06
513.0,0.07
512.0,0.08
511.0,0.07
510.0,0.06
509.0,0.07
508.0,0.07
507.0,0.07
506.0,0.07
505.0,0.06
504.0,0.07
503.0,0.07
502.0,0.07
501.0,0.06
500.0,0.07
499.0,0.07
498.0,0.07
497.0,0.06
496.0,0.06
495.0,0.06
494.0,0.07
493.0,0.06
492.0,0.06
491.0,0.06
490.0,0.06
489.0,0.06
488.0,0.05
487.0,0.05
486.0,0.06
485.0,0.06
484.0,0.05
483.0,0.04
482.0,0.05
481.0,0.06
480.0,0.05
479.0,0.05
478.0,0.06
477.0,0.07
476.0,0.06
475.0,0.06
474.0,0.06
473.0,0.07
472.0,0.07
471.0,0.06
470.0,0.06
469.0,0.07
468.0,0.07
467.0,0.07
466.0,0.06
465.0,0.07
464.0,0.08
463.0,0.07
462.0,0.07
461.0,0.08
460.0,0.07
459.0,0.07
458.0,0.07
457.0,0.08
456.0,0.07
455.0,0.07
454.0,0.06
453.0,0.07
452.0,0.08
451.0,0.07
450.0,0.06
449.0,0.07
448.0,0.07
447.0,0.07
446.0,0.07
445.0,0.06
444.0,0.07
443.0,0.07
442.0,0.06
441.0,0.06
440.0,0.07
439.0,0.07
438.0,0.07
437.0,0.06
436.0,0.07
435.0,0.08
434.0,0.08
433.0,0.07
432.0,0.07
431.0,0.08
430.0,0.08
429.0,0.07
428.0,0.07
427.0,0.07
426.0,0.08
425.0,0.07
424.0,0.07
423.0,0.07
422.0,0.08
421.0,0.07
420.0,0.07
419.0,0.06
418.0,0.07
417.0,0.08
416.0,0.08
415.0,0.07
414.0,0.08
413.0,0.08
412.0,0.08
411.0,0.08
410.0,0.08
409.0,0.08
408.0,0.08
407.0,0.08
406.0,0.07
405.0,0.08
404.0,0.09
403.0,0.08
402.0,0.08
401.0,0.09
400.0,0.09
399.0,0.09
398.0,0.08
397.0,0.08
396.0,0.09
395.0,0.09
394.0,0.09
393.0,0.08
392.0,0.08
391.0,0.10
390.0,0.09
389.0,0.09
388.0,0.09
387.0,0.09
386.0,0.09
385.0,0.09
384.0,0.09
383.0,0.10
382.0,0.10
381.0,0.10
380.0,0.09
379.0,0.11
378.0,0.09
377.0,0.03
376.0,0.06
375.0,0.08
374.0,0.08
373.0,0.08
372.0,0.08
371.0,0.08
370.0,0.07
369.0,0.07
368.0,0.08
367.0,0.08
366.0,0.09
365.0,0.10
364.0,0.10
363.0,0.10
362.0,0.10
361.0,0.09
360.0,0.10
359.0,0.11
358.0,0.10
357.0,0.09
356.0,0.10
355.0,0.11
354.0,0.11
353.0,0.10
352.0,0.11
351.0,0.11
350.0,0.10
349.0,0.11
348.0,0.12
347.0,0.13
346.0,0.12
345.0,0.11
344.0,0.11
343.0,0.11
342.0,0.12
341.0,0.13
340.0,0.12
339.0,0.12
338.0,0.13
337.0,0.13
336.0,0.11
335.0,0.12
334.0,0.13
333.0,0.12
332.0,0.13
331.0,0.12
330.0,0.11
329.0,0.13
328.0,0.12
327.0,0.13
326.0,0.14
325.0,0.13
324.0,0.14
323.0,0.14
322.0,0.13
321.0,0.13
320.0,0.13
319.0,0.17
318.0,0.20
317.0,0.20
316.0,0.21
315.0,0.22
314.0,0.22
313.0,0.21
312.0,0.22
311.0,0.22
310.0,0.22
309.0,0.22
308.0,0.23
307.0,0.23
306.0,0.22
305.0,0.23
304.0,0.23
303.0,0.23
302.0,0.23
301.0,0.24
300.0,0.24
299.0,0.24
298.0,0.24
297.0,0.25
296.0,0.25
295.0,0.25
294.0,0.25
293.0,0.26
292.0,0.26
291.0,0.25
290.0,0.26
289.0,0.26
288.0,0.26
287.0,0.26
286.0,0.26
285.0,0.27
284.0,0.27
283.0,0.26
282.0,0.27
281.0,0.28
280.0,0.27
279.0,0.26
278.0,0.27
277.0,0.27
276.0,0.27
275.0,0.27
274.0,0.27
273.0,0.27
272.0,0.27
271.0,0.27
270.0,0.27
269.0,0.27
268.0,0.26
267.0,0.27
266.0,0.27
265.0,0.26
264.0,0.25
263.0,0.26
262.0,0.26
261.0,0.25
260.0,0.25
259.0,0.25
258.0,0.25
257.0,0.24
256.0,0.25
255.0,0.25
254.0,0.23
253.0,0.22
252.0,0.23
251.0,0.23
250.0,0.22
249.0,0.22
248.0,0.22
247.0,0.22
246.0,0.21
245.0,0.21
244.0,0.22
243.0,0.22
242.0,0.21
241.0,0.21
240.0,0.22
239.0,0.22
238.0,0.21
237.0,0.21
236.0,0.22
235.0,0.22
234.0,0.22
233.0,0.21
232.0,0.22
231.0,0.23
230.0,0.22
229.0,0.22
228.0,0.22
227.0,0.23
226.0,0.23
225.0,0.23
224.0,0.23
223.0,0.24
222.0,0.24
221.0,0.24
220.0,0.25
219.0,0.25
218.0,0.25
217.0,0.25
216.0,0.26
215.0,0.27
214.0,0.27
213.0,0.28
212.0,0.27
211.0,0.29
210.0,0.29
209.0,0.29
208.0,0.31
207.0,0.32
206.0,0.32
205.0,0.32
204.0,0.33
203.0,0.36
202.0,0.36
201.0,0.36
200.0,0.37
