Created as New Dataset,
nm,%T
800.0,0.31
799.0,0.30
798.0,0.32
797.0,0.31
796.0,0.32
795.0,0.29
794.0,0.33
793.0,0.31
792.0,0.32
791.0,0.32
790.0,0.34
789.0,0.30
788.0,0.32
787.0,0.30
786.0,0.31
785.0,0.31
784.0,0.31
783.0,0.30
782.0,0.33
781.0,0.30
780.0,0.32
779.0,0.30
778.0,0.31
777.0,0.31
776.0,0.32
775.0,0.31
774.0,0.31
773.0,0.31
772.0,0.32
771.0,0.30
770.0,0.32
769.0,0.30
768.0,0.30
767.0,0.30
766.0,0.31
765.0,0.30
764.0,0.31
763.0,0.32
762.0,0.30
761.0,0.30
760.0,0.29
759.0,0.31
758.0,0.30
757.0,0.29
756.0,0.28
755.0,0.31
754.0,0.31
753.0,0.31
752.0,0.31
751.0,0.32
750.0,0.30
749.0,0.30
748.0,0.30
747.0,0.31
746.0,0.31
745.0,0.31
744.0,0.30
743.0,0.29
742.0,0.30
741.0,0.32
740.0,0.31
739.0,0.28
738.0,0.31
737.0,0.31
736.0,0.29
735.0,0.29
734.0,0.30
733.0,0.30
732.0,0.30
731.0,0.29
730.0,0.30
729.0,0.30
728.0,0.30
727.0,0.29
726.0,0.30
725.0,0.30
724.0,0.30
723.0,0.30
722.0,0.31
721.0,0.30
720.0,0.30
719.0,0.30
718.0,0.29
717.0,0.30
716.0,0.30
715.0,0.30
714.0,0.30
713.0,0.29
712.0,0.30
711.0,0.30
710.0,0.30
709.0,0.30
708.0,0.30
707.0,0.29
706.0,0.29
705.0,0.29
704.0,0.28
703.0,0.29
702.0,0.31
701.0,0.31
700.0,0.29
699.0,0.29
698.0,0.29
697.0,0.29
696.0,0.29
695.0,0.29
694.0,0.31
693.0,0.30
692.0,0.29
691.0,0.30
690.0,0.30
689.0,0.28
688.0,0.29
687.0,0.30
686.0,0.30
685.0,0.29
684.0,0.29
683.0,0.30
682.0,0.30
681.0,0.29
680.0,0.28
679.0,0.28
678.0,0.29
677.0,0.30
676.0,0.29
675.0,0.29
674.0,0.29
673.0,0.30
672.0,0.29
671.0,0.28
670.0,0.29
669.0,0.29
668.0,0.29
667.0,0.29
666.0,0.29
665.0,0.29
664.0,0.29
663.0,0.29
662.0,0.29
661.0,0.29
660.0,0.29
659.0,0.29
658.0,0.29
657.0,0.28
656.0,0.29
655.0,0.29
654.0,0.30
653.0,0.29
652.0,0.28
651.0,0.29
650.0,0.29
649.0,0.29
648.0,0.29
647.0,0.28
646.0,0.28
645.0,0.29
644.0,0.29
643.0,0.28
642.0,0.28
641.0,0.29
640.0,0.29
639.0,0.29
638.0,0.28
637.0,0.28
636.0,0.29
635.0,0.28
634.0,0.28
633.0,0.29
632.0,0.29
631.0,0.28
630.0,0.28
629.0,0.28
628.0,0.28
627.0,0.29
626.0,0.28
625.0,0.27
624.0,0.28
623.0,0.29
622.0,0.29
621.0,0.28
620.0,0.28
619.0,0.28
618.0,0.29
617.0,0.28
616.0,0.28
615.0,0.27
614.0,0.28
613.0,0.28
612.0,0.28
611.0,0.28
610.0,0.27
609.0,0.27
608.0,0.28
607.0,0.28
606.0,0.28
605.0,0.28
604.0,0.28
603.0,0.28
602.0,0.28
601.0,0.28
600.0,0.27
599.0,0.27
598.0,0.28
597.0,0.28
596.0,0.28
595.0,0.27
594.0,0.27
593.0,0.27
592.0,0.28
591.0,0.27
590.0,0.27
589.0,0.27
588.0,0.28
587.0,0.28
586.0,0.27
585.0,0.27
584.0,0.27
583.0,0.27
582.0,0.27
581.0,0.27
580.0,0.27
579.0,0.27
578.0,0.28
577.0,0.28
576.0,0.27
575.0,0.27
574.0,0.27
573.0,0.28
572.0,0.27
571.0,0.27
570.0,0.26
569.0,0.27
568.0,0.27
567.0,0.28
566.0,0.27
565.0,0.26
564.0,0.27
563.0,0.27
562.0,0.26
561.0,0.27
560.0,0.27
559.0,0.27
558.0,0.26
557.0,0.26
556.0,0.27
555.0,0.27
554.0,0.26
553.0,0.26
552.0,0.26
551.0,0.27
550.0,0.26
549.0,0.26
548.0,0.26
547.0,0.26
546.0,0.27
545.0,0.27
544.0,0.26
543.0,0.26
542.0,0.26
541.0,0.26
540.0,0.27
539.0,0.27
538.0,0.26
537.0,0.26
536.0,0.26
535.0,0.27
534.0,0.27
533.0,0.26
532.0,0.26
531.0,0.26
530.0,0.27
529.0,0.27
528.0,0.26
527.0,0.25
526.0,0.26
525.0,0.26
524.0,0.26
523.0,0.26
522.0,0.26
521.0,0.26
520.0,0.27
519.0,0.26
518.0,0.26
517.0,0.25
516.0,0.26
515.0,0.27
514.0,0.26
513.0,0.25
512.0,0.25
511.0,0.26
510.0,0.26
509.0,0.25
508.0,0.24
507.0,0.24
506.0,0.24
505.0,0.24
504.0,0.24
503.0,0.23
502.0,0.22
501.0,0.22
500.0,0.22
499.0,0.22
498.0,0.21
497.0,0.20
496.0,0.20
495.0,0.20
494.0,0.19
493.0,0.18
492.0,0.17
491.0,0.17
490.0,0.17
489.0,0.17
488.0,0.16
487.0,0.15
486.0,0.15
485.0,0.15
484.0,0.15
483.0,0.14
482.0,0.14
481.0,0.13
480.0,0.13
479.0,0.14
478.0,0.15
477.0,0.14
476.0,0.14
475.0,0.14
474.0,0.15
473.0,0.15
472.0,0.14
471.0,0.14
470.0,0.15
469.0,0.15
468.0,0.15
467.0,0.14
466.0,0.14
465.0,0.15
464.0,0.15
463.0,0.15
462.0,0.14
461.0,0.14
460.0,0.15
459.0,0.15
458.0,0.15
457.0,0.14
456.0,0.15
455.0,0.15
454.0,0.15
453.0,0.15
452.0,0.14
451.0,0.14
450.0,0.15
449.0,0.15
448.0,0.14
447.0,0.14
446.0,0.14
445.0,0.14
444.0,0.14
443.0,0.14
442.0,0.13
441.0,0.14
440.0,0.14
439.0,0.14
438.0,0.14
437.0,0.14
436.0,0.14
435.0,0.15
434.0,0.14
433.0,0.14
432.0,0.14
431.0,0.14
430.0,0.14
429.0,0.14
428.0,0.14
427.0,0.14
426.0,0.15
425.0,0.15
424.0,0.14
423.0,0.14
422.0,0.14
421.0,0.15
420.0,0.15
419.0,0.14
418.0,0.14
417.0,0.15
416.0,0.15
415.0,0.15
414.0,0.14
413.0,0.15
412.0,0.16
411.0,0.16
410.0,0.15
409.0,0.16
408.0,0.16
407.0,0.17
406.0,0.17
405.0,0.17
404.0,0.17
403.0,0.18
402.0,0.19
401.0,0.19
400.0,0.19
399.0,0.19
398.0,0.19
397.0,0.21
396.0,0.21
395.0,0.20
394.0,0.20
393.0,0.21
392.0,0.21
391.0,0.21
390.0,0.20
389.0,0.20
388.0,0.20
387.0,0.20
386.0,0.20
385.0,0.19
384.0,0.18
383.0,0.19
382.0,0.19
381.0,0.18
380.0,0.18
379.0,0.19
378.0,0.18
377.0,0.16
376.0,0.14
375.0,0.15
374.0,0.14
373.0,0.12
372.0,0.15
371.0,0.15
370.0,0.14
369.0,0.14
368.0,0.14
367.0,0.14
366.0,0.15
365.0,0.15
364.0,0.15
363.0,0.14
362.0,0.15
361.0,0.15
360.0,0.15
359.0,0.15
358.0,0.17
357.0,0.16
356.0,0.15
355.0,0.15
354.0,0.17
353.0,0.17
352.0,0.17
351.0,0.17
350.0,0.17
349.0,0.17
348.0,0.18
347.0,0.18
346.0,0.18
345.0,0.18
344.0,0.19
343.0,0.19
342.0,0.19
341.0,0.19
340.0,0.18
339.0,0.19
338.0,0.18
337.0,0.17
336.0,0.18
335.0,0.19
334.0,0.19
333.0,0.18
332.0,0.18
331.0,0.19
330.0,0.20
329.0,0.17
328.0,0.15
327.0,0.16
326.0,0.18
325.0,0.19
324.0,0.16
323.0,0.17
322.0,0.18
321.0,0.16
320.0,0.17
319.0,0.26
318.0,0.32
317.0,0.33
316.0,0.34
315.0,0.34
314.0,0.34
313.0,0.34
312.0,0.34
311.0,0.34
310.0,0.34
309.0,0.34
308.0,0.35
307.0,0.36
306.0,0.35
305.0,0.34
304.0,0.34
303.0,0.35
302.0,0.36
301.0,0.35
300.0,0.35
299.0,0.35
298.0,0.36
297.0,0.36
296.0,0.36
295.0,0.36
294.0,0.36
293.0,0.37
292.0,0.37
291.0,0.37
290.0,0.37
289.0,0.37
288.0,0.37
287.0,0.37
286.0,0.37
285.0,0.37
284.0,0.37
283.0,0.38
282.0,0.38
281.0,0.38
280.0,0.38
279.0,0.40
278.0,0.42
277.0,0.43
276.0,0.43
275.0,0.43
274.0,0.42
273.0,0.39
272.0,0.37
271.0,0.36
270.0,0.37
269.0,0.37
268.0,0.37
267.0,0.35
266.0,0.35
265.0,0.37
264.0,0.36
263.0,0.36
262.0,0.36
261.0,0.36
260.0,0.36
259.0,0.36
258.0,0.35
257.0,0.36
256.0,0.36
255.0,0.36
254.0,0.35
253.0,0.35
252.0,0.35
251.0,0.36
250.0,0.36
249.0,0.36
248.0,0.35
247.0,0.36
246.0,0.37
245.0,0.37
244.0,0.36
243.0,0.36
242.0,0.37
241.0,0.37
240.0,0.37
239.0,0.37
238.0,0.37
237.0,0.38
236.0,0.38
235.0,0.38
234.0,0.38
233.0,0.38
232.0,0.39
231.0,0.39
230.0,0.38
229.0,0.38
228.0,0.38
227.0,0.39
226.0,0.39
225.0,0.37
224.0,0.38
223.0,0.38
222.0,0.38
221.0,0.38
220.0,0.37
219.0,0.37
218.0,0.38
217.0,0.38
216.0,0.38
215.0,0.37
214.0,0.38
213.0,0.39
212.0,0.39
211.0,0.39
210.0,0.39
209.0,0.40
208.0,0.42
207.0,0.43
206.0,0.45
205.0,0.47
204.0,0.51
203.0,0.54
202.0,0.57
201.0,0.58
200.0,0.60
