PE FL                   SPECTRUM    ASCII       PEDS        1.60        
  -1
01#145.SP
02/03/17
03:06:16.00
02/03/17
03:08:50.00


580.000000
1









LS55
310.00
5.00
5.00
SCAN
1
20
100
100
0
100
0
1
0
1
7
ON
580 310 
1 0 0
#HDR
-1
-1
#GR
NM

0.00002384185791015625
0.0
340.000000
0.500000
481
8
16.398765
0.399886
#DATA
340.000000	3.806000  
340.500000	3.742825  
341.000000	3.730795  
341.500000	3.767772  
342.000000	3.846022  
342.500000	3.922000  
343.000000	3.981871  
343.500000	3.995924  
344.000000	4.025363  
344.500000	4.101159  
345.000000	4.189303  
345.500000	4.228250  
346.000000	4.232833  
346.500000	4.228068  
347.000000	4.232136  
347.500000	4.264484  
348.000000	4.329946  
348.500000	4.396931  
349.000000	4.434053  
349.500000	4.458606  
350.000000	4.494196  
350.500000	4.529439  
351.000000	4.553007  
351.500000	4.588750  
352.000000	4.625787  
352.500000	4.647984  
353.000000	4.696287  
353.500000	4.760250  
354.000000	4.834151  
354.500000	4.883310  
355.000000	4.913598  
355.500000	4.910083  
356.000000	4.898265  
356.500000	4.898750  
357.000000	4.954234  
357.500000	5.033242  
358.000000	5.086666  
358.500000	5.099924  
359.000000	5.087613  
359.500000	5.105015  
360.000000	5.147189  
360.500000	5.192499  
361.000000	5.216287  
361.500000	5.235083  
362.000000	5.258689  
362.500000	5.307174  
363.000000	5.362310  
363.500000	5.387636  
364.000000	5.394083  
364.500000	5.421507  
365.000000	5.504803  
365.500000	5.604689  
366.000000	5.688613  
366.500000	5.735159  
367.000000	5.750568  
367.500000	5.772272  
368.000000	5.833454  
368.500000	5.942310  
369.000000	6.015818  
369.500000	6.066393  
370.000000	6.140113  
370.500000	6.255939  
371.000000	6.384045  
371.500000	6.476750  
372.000000	6.563333  
372.500000	6.638704  
373.000000	6.737856  
373.500000	6.838325  
374.000000	6.979810  
374.500000	7.124484  
375.000000	7.247939  
375.500000	7.354060  
376.000000	7.447772  
376.500000	7.555340  
377.000000	7.676560  
377.500000	7.822643  
378.000000	7.994636  
378.500000	8.171696  
379.000000	8.362136  
379.500000	8.568068  
380.000000	8.746893  
380.500000	8.843303  
381.000000	8.921098  
381.500000	9.057136  
382.000000	9.251749  
382.500000	9.434492  
383.000000	9.595522  
383.500000	9.747181  
384.000000	9.900515  
384.500000	10.024946 
385.000000	10.155000 
385.500000	10.301696 
386.000000	10.461371 
386.500000	10.656212 
387.000000	10.855818 
387.500000	11.059568 
388.000000	11.212022 
388.500000	11.365181 
389.000000	11.484151 
389.500000	11.636727 
390.000000	11.827856 
390.500000	12.111689 
391.000000	12.369537 
391.500000	12.508810 
392.000000	12.567681 
392.500000	12.675037 
393.000000	12.859962 
393.500000	13.058068 
394.000000	13.244863 
394.500000	13.423825 
395.000000	13.580454 
395.500000	13.674719 
396.000000	13.749143 
396.500000	13.860492 
397.000000	14.049886 
397.500000	14.263492 
398.000000	14.471325 
398.500000	14.582053 
399.000000	14.649446 
399.500000	14.699053 
400.000000	14.824848 
400.500000	14.972568 
401.000000	15.137053 
401.500000	15.217469 
402.000000	15.247560 
402.500000	15.210704 
403.000000	15.293727 
403.500000	15.440712 
404.000000	15.615143 
404.500000	15.654992 
405.000000	15.712825 
405.500000	15.783545 
406.000000	15.880924 
406.500000	15.887401 
407.000000	15.868750 
407.500000	15.856598 
408.000000	15.917530 
408.500000	16.026628 
409.000000	16.112053 
409.500000	16.116598 
410.000000	16.094015 
410.500000	16.129219 
411.000000	16.226537 
411.500000	16.312287 
412.000000	16.355174 
412.500000	16.378674 
413.000000	16.398765 
413.500000	16.385780 
414.000000	16.364500 
414.500000	16.312840 
415.000000	16.297909 
415.500000	16.261424 
416.000000	16.230568 
416.500000	16.210128 
417.000000	16.294553 
417.500000	16.350742 
418.000000	16.306424 
418.500000	16.149643 
419.000000	16.045962 
419.500000	16.040833 
420.000000	16.094424 
420.500000	16.077181 
421.000000	16.015295 
421.500000	15.925090 
422.000000	15.906696 
422.500000	15.927416 
423.000000	15.921598 
423.500000	15.817992 
424.000000	15.689333 
424.500000	15.606969 
425.000000	15.563439 
425.500000	15.502560 
426.000000	15.424159 
426.500000	15.398689 
427.000000	15.405060 
427.500000	15.366075 
428.000000	15.216310 
428.500000	14.999545 
429.000000	14.825590 
429.500000	14.757871 
430.000000	14.754840 
430.500000	14.759954 
431.000000	14.683659 
431.500000	14.545280 
432.000000	14.392931 
432.500000	14.305568 
433.000000	14.192136 
433.500000	14.052113 
434.000000	13.834537 
434.500000	13.651075 
435.000000	13.503500 
435.500000	13.437795 
436.000000	13.346219 
436.500000	13.212575 
437.000000	13.030090 
437.500000	12.875659 
438.000000	12.751333 
438.500000	12.661840 
439.000000	12.543689 
439.500000	12.452454 
440.000000	12.372537 
440.500000	12.317409 
441.000000	12.173356 
441.500000	11.980704 
442.000000	11.798969 
442.500000	11.679606 
443.000000	11.559719 
443.500000	11.415886 
444.000000	11.322446 
444.500000	11.230893 
445.000000	11.113825 
445.500000	10.948659 
446.000000	10.816780 
446.500000	10.689454 
447.000000	10.596409 
447.500000	10.463712 
448.000000	10.310363 
448.500000	10.114780 
449.000000	9.959363  
449.500000	9.799757  
450.000000	9.662530  
450.500000	9.522833  
451.000000	9.419886  
451.500000	9.325878  
452.000000	9.225272  
452.500000	9.119545  
453.000000	8.999598  
453.500000	8.846939  
454.000000	8.657924  
454.500000	8.487181  
455.000000	8.370242  
455.500000	8.272121  
456.000000	8.164545  
456.500000	8.017946  
457.000000	7.870727  
457.500000	7.743893  
458.000000	7.619356  
458.500000	7.508189  
459.000000	7.399439  
459.500000	7.294363  
460.000000	7.164037  
460.500000	7.049787  
461.000000	6.936946  
461.500000	6.868696  
462.000000	6.791871  
462.500000	6.713318  
463.000000	6.616424  
463.500000	6.493674  
464.000000	6.358840  
464.500000	6.213522  
465.000000	6.141204  
465.500000	6.113977  
466.000000	6.126007  
466.500000	6.039515  
467.000000	5.929325  
467.500000	5.773499  
468.000000	5.666537  
468.500000	5.555795  
469.000000	5.492454  
469.500000	5.436492  
470.000000	5.379818  
470.500000	5.293287  
471.000000	5.207250  
471.500000	5.128757  
472.000000	5.052121  
472.500000	5.002613  
473.000000	4.956325  
473.500000	4.885378  
474.000000	4.786734  
474.500000	4.703795  
475.000000	4.666318  
475.500000	4.638128  
476.000000	4.589545  
476.500000	4.522666  
477.000000	4.453575  
477.500000	4.389492  
478.000000	4.352590  
478.500000	4.315045  
479.000000	4.260984  
479.500000	4.196924  
480.000000	4.143522  
480.500000	4.081477  
481.000000	4.030007  
481.500000	3.977893  
482.000000	3.947606  
482.500000	3.905886  
483.000000	3.863393  
483.500000	3.796212  
484.000000	3.745681  
484.500000	3.721689  
485.000000	3.720833  
485.500000	3.698651  
486.000000	3.646265  
486.500000	3.579916  
487.000000	3.533507  
487.500000	3.499515  
488.000000	3.461477  
488.500000	3.395212  
489.000000	3.322340  
489.500000	3.265098  
490.000000	3.217075  
490.500000	3.171424  
491.000000	3.118409  
491.500000	3.086727  
492.000000	3.067106  
492.500000	3.055295  
493.000000	3.013272  
493.500000	2.959780  
494.000000	2.901696  
494.500000	2.872439  
495.000000	2.858856  
495.500000	2.832363  
496.000000	2.782772  
496.500000	2.708893  
497.000000	2.637484  
497.500000	2.599303  
498.000000	2.586348  
498.500000	2.560946  
499.000000	2.538636  
499.500000	2.519219  
500.000000	2.500083  
500.500000	2.456045  
501.000000	2.404166  
501.500000	2.355522  
502.000000	2.324219  
502.500000	2.300780  
503.000000	2.282174  
503.500000	2.250734  
504.000000	2.214500  
504.500000	2.169446  
505.000000	2.125249  
505.500000	2.093037  
506.000000	2.076712  
506.500000	2.067969  
507.000000	2.046037  
507.500000	2.017469  
508.000000	1.983901  
508.500000	1.968393  
509.000000	1.944765  
509.500000	1.923234  
510.000000	1.896681  
510.500000	1.885916  
511.000000	1.880075  
511.500000	1.864257  
512.000000	1.827969  
512.500000	1.792083  
513.000000	1.756545  
513.500000	1.719113  
514.000000	1.695386  
514.500000	1.692159  
515.000000	1.697507  
515.500000	1.689424  
516.000000	1.667007  
516.500000	1.641356  
517.000000	1.611159  
517.500000	1.566250  
518.000000	1.530568  
518.500000	1.504909  
519.000000	1.491886  
519.500000	1.480886  
520.000000	1.475590  
520.500000	1.455424  
521.000000	1.428901  
521.500000	1.399257  
522.000000	1.377068  
522.500000	1.358348  
523.000000	1.348227  
523.500000	1.363742  
524.000000	1.368037  
524.500000	1.337598  
525.000000	1.284590  
525.500000	1.252560  
526.000000	1.238583  
526.500000	1.234901  
527.000000	1.214371  
527.500000	1.186992  
528.000000	1.172583  
528.500000	1.178393  
529.000000	1.182560  
529.500000	1.164469  
530.000000	1.132007  
530.500000	1.105363  
531.000000	1.091022  
531.500000	1.078356  
532.000000	1.072696  
532.500000	1.056393  
533.000000	1.036325  
533.500000	1.027628  
534.000000	1.034750  
534.500000	1.033984  
535.000000	1.010272  
535.500000	0.985825  
536.000000	0.979772  
536.500000	0.989348  
537.000000	0.981803  
537.500000	0.962825  
538.000000	0.938515  
538.500000	0.925750  
539.000000	0.909545  
539.500000	0.901863  
540.000000	0.896310  
540.500000	0.892787  
541.000000	0.874499  
541.500000	0.858083  
542.000000	0.853333  
542.500000	0.862204  
543.000000	0.861522  
543.500000	0.853939  
544.000000	0.839249  
544.500000	0.822606  
545.000000	0.800196  
545.500000	0.780750  
546.000000	0.777674  
546.500000	0.785143  
547.000000	0.787984  
547.500000	0.781469  
548.000000	0.772462  
548.500000	0.757969  
549.000000	0.736424  
549.500000	0.714431  
550.000000	0.703053  
550.500000	0.709719  
551.000000	0.713749  
551.500000	0.709863  
552.000000	0.697909  
552.500000	0.687803  
553.000000	0.677590  
553.500000	0.660795  
554.000000	0.638878  
554.500000	0.617212  
555.000000	0.603659  
555.500000	0.599446  
556.000000	0.604651  
556.500000	0.604166  
557.000000	0.591181  
557.500000	0.575674  
558.000000	0.577568  
558.500000	0.586128  
559.000000	0.583977  
559.500000	0.563075  
560.000000	0.546272  
560.500000	0.539204  
561.000000	0.542863  
561.500000	0.542280  
562.000000	0.546348  
562.500000	0.553204  
563.000000	0.551204  
563.500000	0.536628  
564.000000	0.515242  
564.500000	0.495681  
565.000000	0.482075  
565.500000	0.481522  
566.000000	0.481446  
566.500000	0.481227  
567.000000	0.479765  
567.500000	0.484651  
568.000000	0.489075  
568.500000	0.481659  
569.000000	0.473219  
569.500000	0.467484  
570.000000	0.465469  
570.500000	0.457969  
571.000000	0.456780  
571.500000	0.452204  
572.000000	0.451537  
572.500000	0.450022  
573.000000	0.449840  
573.500000	0.443954  
574.000000	0.429196  
574.500000	0.419363  
575.000000	0.421871  
575.500000	0.428257  
576.000000	0.422909  
576.500000	0.412734  
577.000000	0.405848  
577.500000	0.405030  
578.000000	0.401492  
578.500000	0.399886  
579.000000	0.407310  
579.500000	0.420931  
580.000000	0.433999  

