PE FL                   SPECTRUM    ASCII       PEDS        1.60        
  -1
01#188.SP
02/03/17
05:45:31.00
02/03/17
05:46:10.00


387.500000
1









LS55
310.00
5.00
5.00
SCAN
1
20
100
100
0
100
0
1
0
1
7
ON
530 280 
1 0 0
#HDR
-1
-1
#GR
NM

0.00002384185791015625
0.0
340.000000
0.500000
96
8
0.001931
-0.001000
#DATA
340.000000	-0.001000 
340.500000	0.001492  
341.000000	0.001931  
341.500000	0.000810  
342.000000	-0.000045 
342.500000	-0.000121 
343.000000	0.000000  
343.500000	0.000000  
344.000000	0.000000  
344.500000	0.000000  
345.000000	0.000000  
345.500000	0.000000  
346.000000	0.000000  
346.500000	0.000000  
347.000000	0.000000  
347.500000	0.000000  
348.000000	0.000000  
348.500000	0.000000  
349.000000	0.000000  
349.500000	0.000000  
350.000000	0.000000  
350.500000	0.000000  
351.000000	0.000000  
351.500000	0.000000  
352.000000	0.000000  
352.500000	0.000000  
353.000000	0.000000  
353.500000	0.000000  
354.000000	0.000000  
354.500000	0.000000  
355.000000	0.000000  
355.500000	0.000000  
356.000000	0.000000  
356.500000	0.000000  
357.000000	-0.000060 
357.500000	-0.000053 
358.000000	0.000409  
358.500000	0.000984  
359.000000	0.001151  
359.500000	0.000613  
360.000000	0.000075  
360.500000	-0.000121 
361.000000	0.000000  
361.500000	0.000000  
362.000000	0.000000  
362.500000	0.000000  
363.000000	0.000000  
363.500000	0.000000  
364.000000	0.000000  
364.500000	0.000000  
365.000000	0.000000  
365.500000	0.000000  
366.000000	0.000000  
366.500000	0.000000  
367.000000	0.000000  
367.500000	0.000000  
368.000000	0.000000  
368.500000	0.000000  
369.000000	0.000000  
369.500000	0.000000  
370.000000	0.000000  
370.500000	0.000000  
371.000000	0.000000  
371.500000	0.000000  
372.000000	0.000000  
372.500000	0.000000  
373.000000	0.000000  
373.500000	0.000000  
374.000000	0.000000  
374.500000	0.000000  
375.000000	0.000000  
375.500000	0.000000  
376.000000	0.000000  
376.500000	0.000000  
377.000000	0.000000  
377.500000	0.000000  
378.000000	0.000000  
378.500000	0.000000  
379.000000	0.000000  
379.500000	0.000000  
380.000000	0.000000  
380.500000	0.000000  
381.000000	0.000000  
381.500000	0.000000  
382.000000	0.000000  
382.500000	0.000000  
383.000000	0.000000  
383.500000	0.000000  
384.000000	0.000000  
384.500000	0.000000  
385.000000	0.000000  
385.500000	0.000000  
386.000000	0.000000  
386.500000	0.000000  
387.000000	0.000000  
387.500000	0.000000  

