PE FL                   SPECTRUM    ASCII       PEDS        1.60        
  -1
01#143.SP
02/03/17
02:53:38.00
02/03/17
02:58:58.00


468.000000
1









LS55
310.00
5.00
5.00
SCAN
1
20
100
100
0
25
0
1
0
1
7
ON
580 310 
1 0 0
#HDR
-1
-1
#GR
NM

0.00002384185791015625
0.0
340.000000
0.500000
257
8
12.284613
2.844159
#DATA
340.000000	2.935000  
340.500000	2.856681  
341.000000	2.844159  
341.500000	2.888204  
342.000000	2.933840  
342.500000	2.963674  
343.000000	2.999613  
343.500000	3.040492  
344.000000	3.074106  
344.500000	3.096250  
345.000000	3.112356  
345.500000	3.130242  
346.000000	3.154984  
346.500000	3.180037  
347.000000	3.200818  
347.500000	3.225446  
348.000000	3.258204  
348.500000	3.294189  
349.000000	3.322901  
349.500000	3.349507  
350.000000	3.375636  
350.500000	3.398787  
351.000000	3.413416  
351.500000	3.434681  
352.000000	3.467098  
352.500000	3.491068  
353.000000	3.511000  
353.500000	3.541916  
354.000000	3.581909  
354.500000	3.613636  
355.000000	3.638159  
355.500000	3.663204  
356.000000	3.694727  
356.500000	3.726833  
357.000000	3.754015  
357.500000	3.770719  
358.000000	3.774121  
358.500000	3.775037  
359.000000	3.799318  
359.500000	3.837674  
360.000000	3.878909  
360.500000	3.908068  
361.000000	3.933924  
361.500000	3.950431  
362.000000	3.962575  
362.500000	3.972590  
363.000000	3.996083  
363.500000	4.033909  
364.000000	4.075621  
364.500000	4.101992  
365.000000	4.125719  
365.500000	4.145856  
366.000000	4.185106  
366.500000	4.231734  
367.000000	4.298537  
367.500000	4.356954  
368.000000	4.408219  
368.500000	4.432909  
369.000000	4.455734  
369.500000	4.502151  
370.000000	4.582106  
370.500000	4.677530  
371.000000	4.739666  
371.500000	4.787772  
372.000000	4.845666  
372.500000	4.945734  
373.000000	5.051621  
373.500000	5.145946  
374.000000	5.215348  
374.500000	5.284924  
375.000000	5.363560  
375.500000	5.467113  
376.000000	5.575446  
376.500000	5.672750  
377.000000	5.753689  
377.500000	5.840621  
378.000000	5.933553  
378.500000	6.031060  
379.000000	6.131863  
379.500000	6.251787  
380.000000	6.393484  
380.500000	6.536439  
381.000000	6.657045  
381.500000	6.751310  
382.000000	6.840060  
382.500000	6.959287  
383.000000	7.100606  
383.500000	7.229090  
384.000000	7.352393  
384.500000	7.492666  
385.000000	7.653204  
385.500000	7.808030  
386.000000	7.964530  
386.500000	8.121477  
387.000000	8.280984  
387.500000	8.424666  
388.000000	8.556659  
388.500000	8.686356  
389.000000	8.802363  
389.500000	8.935666  
390.000000	9.083507  
390.500000	9.254795  
391.000000	9.401401  
391.500000	9.544037  
392.000000	9.658249  
392.500000	9.776856  
393.000000	9.868848  
393.500000	9.974825  
394.000000	10.075984 
394.500000	10.197500 
395.000000	10.310507 
395.500000	10.427878 
396.000000	10.537803 
396.500000	10.634159 
397.000000	10.725310 
397.500000	10.807787 
398.000000	10.915219 
398.500000	11.023181 
399.000000	11.118727 
399.500000	11.167530 
400.000000	11.208060 
400.500000	11.259803 
401.000000	11.336439 
401.500000	11.431121 
402.000000	11.512037 
402.500000	11.580477 
403.000000	11.625962 
403.500000	11.681098 
404.000000	11.716780 
404.500000	11.741090 
405.000000	11.753227 
405.500000	11.790825 
406.000000	11.838060 
406.500000	11.894962 
407.000000	11.951363 
407.500000	11.986636 
408.000000	12.009151 
408.500000	12.034325 
409.000000	12.100537 
409.500000	12.159712 
410.000000	12.184840 
410.500000	12.168689 
411.000000	12.156098 
411.500000	12.161416 
412.000000	12.201295 
412.500000	12.247287 
413.000000	12.284613 
413.500000	12.274416 
414.000000	12.237409 
414.500000	12.209121 
415.000000	12.199151 
415.500000	12.173128 
416.000000	12.143060 
416.500000	12.139272 
417.000000	12.147606 
417.500000	12.143651 
418.000000	12.125242 
418.500000	12.125750 
419.000000	12.131787 
419.500000	12.125780 
420.000000	12.091295 
420.500000	12.047757 
421.000000	11.986386 
421.500000	11.933287 
422.000000	11.883803 
422.500000	11.845962 
423.000000	11.791992 
423.500000	11.739916 
424.000000	11.690439 
424.500000	11.650060 
425.000000	11.616606 
425.500000	11.580621 
426.000000	11.536803 
426.500000	11.471507 
427.000000	11.375818 
427.500000	11.253325 
428.000000	11.147272 
428.500000	11.079469 
429.000000	11.046196 
429.500000	11.010825 
430.000000	10.960636 
430.500000	10.871772 
431.000000	10.769181 
431.500000	10.663643 
432.000000	10.582878 
432.500000	10.508477 
433.000000	10.442553 
433.500000	10.386931 
434.000000	10.319068 
434.500000	10.223363 
435.000000	10.101159 
435.500000	10.000628 
436.000000	9.927416  
436.500000	9.872037  
437.000000	9.772159  
437.500000	9.635734  
438.000000	9.497840  
438.500000	9.405446  
439.000000	9.330075  
439.500000	9.239227  
440.000000	9.137378  
440.500000	9.048515  
441.000000	8.970030  
441.500000	8.887613  
442.000000	8.793424  
442.500000	8.675090  
443.000000	8.545613  
443.500000	8.426818  
444.000000	8.321340  
444.500000	8.211083  
445.000000	8.091848  
445.500000	7.976962  
446.000000	7.869401  
446.500000	7.766712  
447.000000	7.657954  
447.500000	7.570469  
448.000000	7.497810  
448.500000	7.412659  
449.000000	7.298386  
449.500000	7.187189  
450.000000	7.104878  
450.500000	7.027946  
451.000000	6.937674  
451.500000	6.821962  
452.000000	6.719659  
452.500000	6.624795  
453.000000	6.530734  
453.500000	6.423628  
454.000000	6.308901  
454.500000	6.205060  
455.000000	6.108810  
455.500000	6.006999  
456.000000	5.899348  
456.500000	5.817462  
457.000000	5.757636  
457.500000	5.688045  
458.000000	5.600348  
458.500000	5.509810  
459.000000	5.443780  
459.500000	5.378015  
460.000000	5.292969  
460.500000	5.191818  
461.000000	5.107674  
461.500000	5.045939  
462.000000	4.985257  
462.500000	4.908060  
463.000000	4.836151  
463.500000	4.771416  
464.000000	4.709151  
464.500000	4.637848  
465.000000	4.574492  
465.500000	4.509833  
466.000000	4.443401  
466.500000	4.381931  
467.000000	4.335795  
467.500000	4.274401  
468.000000	4.182000  

