PE FL                   SPECTRUM    ASCII       PEDS        1.60        
  -1
01#125.SP
02/03/17
01:13:05.00
02/03/17
01:17:47.00


580.000000
1









LS55
320.00
5.00
5.00
SCAN
1
20
100
100
0
50
0
1
0
1
7
ON
420 400 
1 0 0
#HDR
-1
-1
#GR
NM

0.00002384185791015625
0.0
350.000000
0.500000
461
8
0.010901
-0.000242
#DATA
350.000000	0.000000  
350.500000	0.000878  
351.000000	0.001856  
351.500000	0.002659  
352.000000	0.002560  
352.500000	0.002234  
353.000000	0.001931  
353.500000	0.001674  
354.000000	0.000984  
354.500000	0.000386  
355.000000	0.000833  
355.500000	0.001795  
356.000000	0.002712  
356.500000	0.002212  
357.000000	0.001303  
357.500000	0.000371  
358.000000	0.000015  
358.500000	-0.000174 
359.000000	0.000348  
359.500000	0.000931  
360.000000	0.001439  
360.500000	0.001431  
361.000000	0.002113  
361.500000	0.002674  
362.000000	0.002643  
362.500000	0.001681  
363.000000	0.002022  
363.500000	0.002757  
364.000000	0.002863  
364.500000	0.001651  
365.000000	0.000962  
365.500000	0.001318  
366.000000	0.001537  
366.500000	0.001174  
367.000000	0.000780  
367.500000	0.000893  
368.000000	0.001795  
368.500000	0.002689  
369.000000	0.003522  
369.500000	0.003704  
370.000000	0.003856  
370.500000	0.002886  
371.000000	0.002098  
371.500000	0.002265  
372.000000	0.003757  
372.500000	0.004219  
373.000000	0.002666  
373.500000	0.000537  
374.000000	0.000015  
374.500000	0.001689  
375.000000	0.003280  
375.500000	0.003712  
376.000000	0.002909  
376.500000	0.002060  
377.000000	0.001643  
377.500000	0.002386  
378.000000	0.003530  
378.500000	0.005053  
379.000000	0.005257  
379.500000	0.004272  
380.000000	0.003189  
380.500000	0.002606  
381.000000	0.003363  
381.500000	0.004409  
382.000000	0.005530  
382.500000	0.005098  
383.000000	0.004439  
383.500000	0.003848  
384.000000	0.004325  
384.500000	0.004007  
385.000000	0.003371  
385.500000	0.002848  
386.000000	0.002484  
386.500000	0.003999  
387.000000	0.006378  
387.500000	0.008174  
388.000000	0.007666  
388.500000	0.007371  
389.000000	0.007916  
389.500000	0.007636  
390.000000	0.004833  
390.500000	0.002787  
391.000000	0.003143  
391.500000	0.003893  
392.000000	0.003681  
392.500000	0.003424  
393.000000	0.003750  
393.500000	0.004386  
394.000000	0.004780  
394.500000	0.006045  
395.000000	0.007234  
395.500000	0.007303  
396.000000	0.005962  
396.500000	0.004984  
397.000000	0.004560  
397.500000	0.005492  
398.000000	0.006719  
398.500000	0.008568  
399.000000	0.008121  
399.500000	0.006053  
400.000000	0.003749  
400.500000	0.003750  
401.000000	0.004098  
401.500000	0.004356  
402.000000	0.004136  
402.500000	0.004371  
403.000000	0.004015  
403.500000	0.003484  
404.000000	0.004272  
404.500000	0.005909  
405.000000	0.005689  
405.500000	0.003598  
406.000000	0.002303  
406.500000	0.003416  
407.000000	0.004886  
407.500000	0.004946  
408.000000	0.005280  
408.500000	0.007590  
409.000000	0.009750  
409.500000	0.009106  
410.000000	0.007333  
410.500000	0.006378  
411.000000	0.007371  
411.500000	0.008272  
412.000000	0.008757  
412.500000	0.007749  
413.000000	0.006272  
413.500000	0.003871  
414.000000	0.003553  
414.500000	0.004083  
415.000000	0.004818  
415.500000	0.004409  
416.000000	0.004515  
416.500000	0.006015  
417.000000	0.008227  
417.500000	0.008689  
418.000000	0.007803  
418.500000	0.007840  
419.000000	0.009022  
419.500000	0.009613  
420.000000	0.008393  
420.500000	0.007560  
421.000000	0.008507  
421.500000	0.010060  
422.000000	0.010659  
422.500000	0.010901  
423.000000	0.010310  
423.500000	0.009583  
424.000000	0.007893  
424.500000	0.006613  
425.000000	0.005409  
425.500000	0.005643  
426.000000	0.005992  
426.500000	0.006477  
427.000000	0.006325  
427.500000	0.006325  
428.000000	0.006818  
428.500000	0.006590  
429.000000	0.006674  
429.500000	0.006787  
430.000000	0.006833  
430.500000	0.005462  
431.000000	0.004833  
431.500000	0.006568  
432.000000	0.009424  
432.500000	0.010333  
433.000000	0.008219  
433.500000	0.007189  
434.000000	0.007583  
434.500000	0.009106  
435.000000	0.009174  
435.500000	0.008893  
436.000000	0.008598  
436.500000	0.008818  
437.000000	0.008219  
437.500000	0.007090  
438.000000	0.007416  
438.500000	0.008303  
439.000000	0.008545  
439.500000	0.006598  
440.000000	0.005431  
440.500000	0.004530  
441.000000	0.003219  
441.500000	0.002522  
442.000000	0.004250  
442.500000	0.006249  
443.000000	0.005303  
443.500000	0.003492  
444.000000	0.002803  
444.500000	0.003575  
445.000000	0.004886  
445.500000	0.007121  
446.000000	0.009825  
446.500000	0.009909  
447.000000	0.007477  
447.500000	0.004128  
448.000000	0.003803  
448.500000	0.004878  
449.000000	0.005689  
449.500000	0.004848  
450.000000	0.004090  
450.500000	0.004204  
451.000000	0.004522  
451.500000	0.005575  
452.000000	0.006969  
452.500000	0.007969  
453.000000	0.006863  
453.500000	0.005287  
454.000000	0.003924  
454.500000	0.003083  
455.000000	0.002083  
455.500000	0.001204  
456.000000	0.001757  
456.500000	0.003227  
457.000000	0.004696  
457.500000	0.004340  
458.000000	0.002818  
458.500000	0.001401  
459.000000	0.001803  
459.500000	0.002462  
460.000000	0.002257  
460.500000	0.001000  
461.000000	0.000969  
461.500000	0.001727  
462.000000	0.002303  
462.500000	0.001166  
463.000000	0.000098  
463.500000	0.000166  
464.000000	0.000984  
464.500000	0.001151  
465.000000	0.000553  
465.500000	0.000022  
466.000000	0.000227  
466.500000	0.000931  
467.000000	0.001500  
467.500000	0.001484  
468.000000	0.001583  
468.500000	0.001886  
469.000000	0.002212  
469.500000	0.001643  
470.000000	0.000628  
470.500000	-0.000159 
471.000000	0.000113  
471.500000	0.001287  
472.000000	0.002954  
472.500000	0.003734  
473.000000	0.002992  
473.500000	0.001060  
474.000000	-0.000136 
474.500000	0.000462  
475.000000	0.002325  
475.500000	0.003696  
476.000000	0.003363  
476.500000	0.001916  
477.000000	0.000446  
477.500000	-0.000106 
478.000000	-0.000174 
478.500000	0.000409  
479.000000	0.000924  
479.500000	0.001098  
480.000000	0.001022  
480.500000	0.001060  
481.000000	0.000969  
481.500000	0.000560  
482.000000	0.000484  
482.500000	0.000863  
483.000000	0.001090  
483.500000	0.000560  
484.000000	0.000484  
484.500000	0.000803  
485.000000	0.001098  
485.500000	0.001022  
486.000000	0.001060  
486.500000	0.000969  
487.000000	0.000499  
487.500000	0.000431  
488.000000	0.001272  
488.500000	0.002075  
489.000000	0.001712  
489.500000	0.001098  
490.000000	0.000878  
490.500000	0.000977  
491.000000	0.001022  
491.500000	0.001060  
492.000000	0.001030  
492.500000	0.000553  
493.000000	0.000022  
493.500000	0.000287  
494.000000	0.000984  
494.500000	0.001151  
495.000000	0.000613  
495.500000	0.000075  
496.000000	-0.000121 
496.500000	0.000000  
497.000000	0.000000  
497.500000	0.000000  
498.000000	-0.000060 
498.500000	-0.000053 
499.000000	0.000348  
499.500000	0.000931  
500.000000	0.001560  
500.500000	0.001598  
501.000000	0.001227  
501.500000	0.000492  
502.000000	0.000075  
502.500000	-0.000121 
503.000000	0.000000  
503.500000	0.000000  
504.000000	0.000000  
504.500000	0.000000  
505.000000	0.000000  
505.500000	0.000000  
506.000000	0.000000  
506.500000	0.000000  
507.000000	0.000000  
507.500000	0.000000  
508.000000	0.000000  
508.500000	0.000000  
509.000000	0.000000  
509.500000	0.000000  
510.000000	0.000000  
510.500000	0.000000  
511.000000	-0.000060 
511.500000	-0.000053 
512.000000	0.000409  
512.500000	0.000984  
513.000000	0.001151  
513.500000	0.000613  
514.000000	0.000075  
514.500000	-0.000121 
515.000000	0.000000  
515.500000	-0.000060 
516.000000	-0.000053 
516.500000	0.000409  
517.000000	0.000984  
517.500000	0.001151  
518.000000	0.000553  
518.500000	0.000022  
519.000000	0.000287  
519.500000	0.000984  
520.000000	0.001151  
520.500000	0.000613  
521.000000	0.000075  
521.500000	-0.000121 
522.000000	0.000000  
522.500000	0.000000  
523.000000	0.000000  
523.500000	0.000000  
524.000000	0.000000  
524.500000	0.000000  
525.000000	-0.000060 
525.500000	-0.000174 
526.000000	0.000303  
526.500000	0.001803  
527.000000	0.003121  
527.500000	0.002916  
528.000000	0.001303  
528.500000	0.000030  
529.000000	-0.000242 
529.500000	0.000000  
530.000000	0.000000  
530.500000	-0.000060 
531.000000	-0.000053 
531.500000	0.000409  
532.000000	0.000984  
532.500000	0.001151  
533.000000	0.000613  
533.500000	0.000015  
534.000000	-0.000174 
534.500000	0.000409  
535.000000	0.000984  
535.500000	0.001151  
536.000000	0.000613  
536.500000	0.000075  
537.000000	-0.000121 
537.500000	0.000000  
538.000000	0.000000  
538.500000	0.000000  
539.000000	0.000000  
539.500000	0.000000  
540.000000	0.000000  
540.500000	0.000000  
541.000000	0.000000  
541.500000	0.000000  
542.000000	0.000000  
542.500000	0.000000  
543.000000	0.000000  
543.500000	0.000000  
544.000000	0.000000  
544.500000	0.000000  
545.000000	0.000000  
545.500000	0.000000  
546.000000	0.000000  
546.500000	0.000000  
547.000000	0.000000  
547.500000	0.000000  
548.000000	0.000000  
548.500000	0.000000  
549.000000	0.000000  
549.500000	0.000000  
550.000000	0.000000  
550.500000	0.000000  
551.000000	0.000000  
551.500000	0.000000  
552.000000	0.000000  
552.500000	-0.000060 
553.000000	-0.000053 
553.500000	0.000409  
554.000000	0.000984  
554.500000	0.001151  
555.000000	0.000613  
555.500000	0.000075  
556.000000	-0.000121 
556.500000	0.000000  
557.000000	0.000000  
557.500000	0.000000  
558.000000	0.000000  
558.500000	0.000000  
559.000000	0.000000  
559.500000	0.000000  
560.000000	0.000000  
560.500000	0.000000  
561.000000	0.000000  
561.500000	0.000000  
562.000000	0.000000  
562.500000	0.000000  
563.000000	0.000000  
563.500000	0.000000  
564.000000	0.000000  
564.500000	0.000000  
565.000000	0.000000  
565.500000	0.000000  
566.000000	0.000000  
566.500000	0.000000  
567.000000	0.000000  
567.500000	0.000000  
568.000000	0.000000  
568.500000	0.000000  
569.000000	0.000000  
569.500000	0.000000  
570.000000	0.000000  
570.500000	0.000000  
571.000000	0.000000  
571.500000	0.000000  
572.000000	0.000000  
572.500000	0.000000  
573.000000	0.000000  
573.500000	0.000000  
574.000000	0.000000  
574.500000	0.000000  
575.000000	0.000000  
575.500000	0.000000  
576.000000	0.000000  
576.500000	0.000000  
577.000000	0.000000  
577.500000	0.000000  
578.000000	0.000000  
578.500000	0.000000  
579.000000	0.000000  
579.500000	0.000000  
580.000000	0.000000  

