PE FL                   SPECTRUM    ASCII       PEDS        1.60        
  -1
01#144.SP
02/03/17
02:59:17.00
02/03/17
03:01:49.00


580.000000
1









LS55
310.00
5.00
5.00
SCAN
1
20
100
100
0
100
0
1
0
1
7
ON
469 310 
1 0 0
#HDR
-1
-1
#GR
NM

0.00002384185791015625
0.0
340.000000
0.500000
481
8
12.221037
0.263000
#DATA
340.000000	2.550000  
340.500000	2.712219  
341.000000	2.805810  
341.500000	2.838553  
342.000000	2.864356  
342.500000	2.896356  
343.000000	2.921416  
343.500000	2.940666  
344.000000	2.982325  
344.500000	3.005090  
345.000000	3.014749  
345.500000	3.019931  
346.000000	3.068962  
346.500000	3.128916  
347.000000	3.156954  
347.500000	3.135060  
348.000000	3.102651  
348.500000	3.102500  
349.000000	3.138977  
349.500000	3.205583  
350.000000	3.261219  
350.500000	3.300628  
351.000000	3.329628  
351.500000	3.353916  
352.000000	3.376901  
352.500000	3.406681  
353.000000	3.445613  
353.500000	3.472325  
354.000000	3.469000  
354.500000	3.447522  
355.000000	3.450181  
355.500000	3.495363  
356.000000	3.563674  
356.500000	3.606674  
357.000000	3.646037  
357.500000	3.693037  
358.000000	3.748037  
358.500000	3.761553  
359.000000	3.738250  
359.500000	3.711166  
360.000000	3.727810  
360.500000	3.773257  
361.000000	3.815280  
361.500000	3.837515  
362.000000	3.836568  
362.500000	3.849856  
363.000000	3.881856  
363.500000	3.928977  
364.000000	3.977106  
364.500000	4.011621  
365.000000	4.042439  
365.500000	4.085886  
366.000000	4.130318  
366.500000	4.161143  
367.000000	4.213545  
367.500000	4.277719  
368.000000	4.344310  
368.500000	4.364121  
369.000000	4.388045  
369.500000	4.449439  
370.000000	4.535530  
370.500000	4.592583  
371.000000	4.637053  
371.500000	4.702916  
372.000000	4.784045  
372.500000	4.857568  
373.000000	4.930924  
373.500000	5.045121  
374.000000	5.178871  
374.500000	5.275765  
375.000000	5.330022  
375.500000	5.394439  
376.000000	5.523666  
376.500000	5.657090  
377.000000	5.738939  
377.500000	5.768363  
378.000000	5.823681  
378.500000	5.940954  
379.000000	6.076719  
379.500000	6.205325  
380.000000	6.310568  
380.500000	6.424727  
381.000000	6.511674  
381.500000	6.631636  
382.000000	6.756393  
382.500000	6.905977  
383.000000	7.004931  
383.500000	7.115871  
384.000000	7.223280  
384.500000	7.370075  
385.000000	7.511666  
385.500000	7.677484  
386.000000	7.866666  
386.500000	8.059371  
387.000000	8.183507  
387.500000	8.262787  
388.000000	8.335704  
388.500000	8.468151  
389.000000	8.633719  
389.500000	8.824636  
390.000000	9.009340  
390.500000	9.181409  
391.000000	9.293575  
391.500000	9.388681  
392.000000	9.516371  
392.500000	9.642651  
393.000000	9.744734  
393.500000	9.796901  
394.000000	9.897734  
394.500000	10.033083 
395.000000	10.185878 
395.500000	10.301742 
396.000000	10.428424 
396.500000	10.569431 
397.000000	10.744583 
397.500000	10.855295 
398.000000	10.878462 
398.500000	10.852575 
399.000000	10.890143 
399.500000	10.974068 
400.000000	11.075757 
400.500000	11.167651 
401.000000	11.270696 
401.500000	11.353106 
402.000000	11.392757 
402.500000	11.489166 
403.000000	11.624143 
403.500000	11.712515 
404.000000	11.653242 
404.500000	11.568628 
405.000000	11.573772 
405.500000	11.656787 
406.000000	11.745462 
406.500000	11.790015 
407.000000	11.844977 
407.500000	11.891424 
408.000000	11.942303 
408.500000	11.980446 
409.000000	12.007242 
409.500000	12.034083 
410.000000	12.045946 
410.500000	12.089030 
411.000000	12.120378 
411.500000	12.165068 
412.000000	12.172462 
412.500000	12.171606 
413.000000	12.148863 
413.500000	12.124651 
414.000000	12.129598 
414.500000	12.176446 
415.000000	12.221037 
415.500000	12.212651 
416.000000	12.162946 
416.500000	12.096409 
417.000000	12.062787 
417.500000	12.047007 
418.000000	12.066878 
418.500000	12.080628 
419.000000	12.061575 
419.500000	12.040681 
420.000000	12.086643 
420.500000	12.111651 
421.000000	12.015863 
421.500000	11.848181 
422.000000	11.762696 
422.500000	11.817234 
423.000000	11.855734 
423.500000	11.808257 
424.000000	11.705257 
424.500000	11.621363 
425.000000	11.534348 
425.500000	11.482750 
426.000000	11.431234 
426.500000	11.380136 
427.000000	11.287704 
427.500000	11.215545 
428.000000	11.158840 
428.500000	11.111704 
429.000000	11.028568 
429.500000	10.945878 
430.000000	10.856030 
430.500000	10.781621 
431.000000	10.708151 
431.500000	10.656681 
432.000000	10.611393 
432.500000	10.545575 
433.000000	10.440696 
433.500000	10.330378 
434.000000	10.275250 
434.500000	10.212068 
435.000000	10.095537 
435.500000	9.954810  
436.000000	9.908712  
436.500000	9.891856  
437.000000	9.802583  
437.500000	9.653378  
438.000000	9.528462  
438.500000	9.475037  
439.000000	9.410409  
439.500000	9.314181  
440.000000	9.169492  
440.500000	8.997628  
441.000000	8.870356  
441.500000	8.795022  
442.000000	8.732893  
442.500000	8.614015  
443.000000	8.494643  
443.500000	8.371696  
444.000000	8.292477  
444.500000	8.195931  
445.000000	8.104121  
445.500000	8.003553  
446.000000	7.898409  
446.500000	7.767280  
447.000000	7.631909  
447.500000	7.482954  
448.000000	7.371166  
448.500000	7.266007  
449.000000	7.195181  
449.500000	7.098628  
450.000000	7.011643  
450.500000	6.885045  
451.000000	6.803431  
451.500000	6.743363  
452.000000	6.724242  
452.500000	6.647287  
453.000000	6.529575  
453.500000	6.375416  
454.000000	6.250446  
454.500000	6.165530  
455.000000	6.100007  
455.500000	6.014833  
456.000000	5.920689  
456.500000	5.845893  
457.000000	5.787977  
457.500000	5.697060  
458.000000	5.594666  
458.500000	5.506310  
459.000000	5.425234  
459.500000	5.304022  
460.000000	5.202007  
460.500000	5.131272  
461.000000	5.102340  
461.500000	5.050219  
462.000000	5.000515  
462.500000	4.919666  
463.000000	4.820113  
463.500000	4.709628  
464.000000	4.647234  
464.500000	4.626045  
465.000000	4.600386  
465.500000	4.518931  
466.000000	4.382878  
466.500000	4.254568  
467.000000	4.207613  
467.500000	4.195121  
468.000000	4.164454  
468.500000	4.072909  
469.000000	4.001696  
469.500000	3.960136  
470.000000	3.930893  
470.500000	3.861446  
471.000000	3.783189  
471.500000	3.753734  
472.000000	3.736454  
472.500000	3.704696  
473.000000	3.634234  
473.500000	3.583681  
474.000000	3.523431  
474.500000	3.464401  
475.000000	3.407196  
475.500000	3.370643  
476.000000	3.325090  
476.500000	3.275984  
477.000000	3.269439  
477.500000	3.288295  
478.000000	3.297446  
478.500000	3.231477  
479.000000	3.154242  
479.500000	3.081515  
480.000000	3.054272  
480.500000	3.032704  
481.000000	2.999196  
481.500000	2.952106  
482.000000	2.918318  
482.500000	2.880469  
483.000000	2.851090  
483.500000	2.833719  
484.000000	2.825659  
484.500000	2.783424  
485.000000	2.724416  
485.500000	2.663886  
486.000000	2.648386  
486.500000	2.627666  
487.000000	2.595462  
487.500000	2.564507  
488.000000	2.541015  
488.500000	2.513090  
489.000000	2.467363  
489.500000	2.427272  
490.000000	2.391128  
490.500000	2.353181  
491.000000	2.302780  
491.500000	2.266689  
492.000000	2.247787  
492.500000	2.226159  
493.000000	2.200106  
493.500000	2.174265  
494.000000	2.143886  
494.500000	2.107651  
495.000000	2.063939  
495.500000	2.014833  
496.000000	1.964765  
496.500000	1.925143  
497.000000	1.901242  
497.500000	1.895719  
498.000000	1.877136  
498.500000	1.847431  
499.000000	1.809924  
499.500000	1.779727  
500.000000	1.758621  
500.500000	1.747348  
501.000000	1.738772  
501.500000	1.723477  
502.000000	1.695378  
502.500000	1.651931  
503.000000	1.623689  
503.500000	1.601250  
504.000000	1.584166  
504.500000	1.560439  
505.000000	1.534560  
505.500000	1.508621  
506.000000	1.491250  
506.500000	1.476106  
507.000000	1.469219  
507.500000	1.466219  
508.000000	1.459560  
508.500000	1.434250  
509.000000	1.393121  
509.500000	1.361325  
510.000000	1.350083  
510.500000	1.343083  
511.000000	1.329696  
511.500000	1.327242  
512.000000	1.316015  
512.500000	1.286553  
513.000000	1.239409  
513.500000	1.209348  
514.000000	1.189659  
514.500000	1.172121  
515.000000	1.148401  
515.500000	1.137143  
516.000000	1.130916  
516.500000	1.117704  
517.000000	1.087446  
517.500000	1.061098  
518.000000	1.060462  
518.500000	1.068590  
519.000000	1.072053  
519.500000	1.047401  
520.000000	1.034856  
520.500000	1.026977  
521.000000	1.014053  
521.500000	0.969000  
522.000000	0.935136  
522.500000	0.930098  
523.000000	0.949287  
523.500000	0.955742  
524.000000	0.941916  
524.500000	0.924992  
525.000000	0.907674  
525.500000	0.888590  
526.000000	0.875840  
526.500000	0.866810  
527.000000	0.863287  
527.500000	0.855515  
528.000000	0.848954  
528.500000	0.836598  
529.000000	0.831568  
529.500000	0.833257  
530.000000	0.839553  
530.500000	0.833901  
531.000000	0.821977  
531.500000	0.800310  
532.000000	0.778530  
532.500000	0.757560  
533.000000	0.764386  
533.500000	0.775075  
534.000000	0.782272  
534.500000	0.766212  
535.000000	0.747310  
535.500000	0.729242  
536.000000	0.723590  
536.500000	0.725795  
537.000000	0.720249  
537.500000	0.701780  
538.000000	0.677030  
538.500000	0.675439  
539.000000	0.681992  
539.500000	0.675181  
540.000000	0.651901  
540.500000	0.630848  
541.000000	0.627136  
541.500000	0.623007  
542.000000	0.611946  
542.500000	0.598090  
543.000000	0.597848  
543.500000	0.594045  
544.000000	0.583181  
544.500000	0.561128  
545.000000	0.549439  
545.500000	0.545954  
546.000000	0.553371  
546.500000	0.542977  
547.000000	0.537916  
547.500000	0.533946  
548.000000	0.545280  
548.500000	0.543272  
549.000000	0.545143  
549.500000	0.536492  
550.000000	0.524727  
550.500000	0.502575  
551.000000	0.489159  
551.500000	0.487386  
552.000000	0.477212  
552.500000	0.460424  
553.000000	0.453181  
553.500000	0.465681  
554.000000	0.470719  
554.500000	0.467219  
555.000000	0.454734  
555.500000	0.450159  
556.000000	0.442348  
556.500000	0.437454  
557.000000	0.434515  
557.500000	0.437840  
558.000000	0.434901  
558.500000	0.432166  
559.000000	0.424674  
559.500000	0.420560  
560.000000	0.412386  
560.500000	0.410000  
561.000000	0.401196  
561.500000	0.400416  
562.000000	0.393280  
562.500000	0.389734  
563.000000	0.385856  
563.500000	0.397340  
564.000000	0.402454  
564.500000	0.392954  
565.000000	0.377143  
565.500000	0.373462  
566.000000	0.378954  
566.500000	0.369492  
567.000000	0.355356  
567.500000	0.347439  
568.000000	0.341886  
568.500000	0.332568  
569.000000	0.329840  
569.500000	0.338742  
570.000000	0.345090  
570.500000	0.337727  
571.000000	0.321727  
571.500000	0.315356  
572.000000	0.315992  
572.500000	0.320780  
573.000000	0.320871  
573.500000	0.314128  
574.000000	0.304409  
574.500000	0.304477  
575.000000	0.307674  
575.500000	0.314409  
576.000000	0.309901  
576.500000	0.302477  
577.000000	0.287757  
577.500000	0.280045  
578.000000	0.271030  
578.500000	0.267454  
579.000000	0.263000  
579.500000	0.268106  
580.000000	0.279000  

