PE FL                   SPECTRUM    ASCII       PEDS        1.60        
  -1
01#123.SP
02/03/17
01:01:49.00
02/03/17
01:05:34.00


400.000000
1









LS55
420.00
5.00
5.00
SCAN
1
20
100
100
0
50
0
0
0
1
7
ON
580 300 
1 0 0
#HDR
-1
-1
#GR
NM

0.00002384185791015625
0.0
220.000000
0.500000
361
8
0.001151
-0.000121
#DATA
220.000000	0.000000  
220.500000	0.000000  
221.000000	0.000000  
221.500000	0.000000  
222.000000	0.000000  
222.500000	0.000000  
223.000000	0.000000  
223.500000	0.000000  
224.000000	0.000000  
224.500000	0.000000  
225.000000	0.000000  
225.500000	0.000000  
226.000000	0.000000  
226.500000	0.000000  
227.000000	0.000000  
227.500000	0.000000  
228.000000	0.000000  
228.500000	0.000000  
229.000000	0.000000  
229.500000	0.000000  
230.000000	0.000000  
230.500000	0.000000  
231.000000	0.000000  
231.500000	0.000000  
232.000000	0.000000  
232.500000	0.000000  
233.000000	0.000000  
233.500000	0.000000  
234.000000	0.000000  
234.500000	0.000000  
235.000000	0.000000  
235.500000	0.000000  
236.000000	0.000000  
236.500000	0.000000  
237.000000	0.000000  
237.500000	0.000000  
238.000000	0.000000  
238.500000	0.000000  
239.000000	0.000000  
239.500000	0.000000  
240.000000	0.000000  
240.500000	0.000000  
241.000000	0.000000  
241.500000	0.000000  
242.000000	0.000000  
242.500000	0.000000  
243.000000	0.000000  
243.500000	0.000000  
244.000000	0.000000  
244.500000	0.000000  
245.000000	0.000000  
245.500000	0.000000  
246.000000	0.000000  
246.500000	0.000000  
247.000000	0.000000  
247.500000	0.000000  
248.000000	0.000000  
248.500000	0.000000  
249.000000	0.000000  
249.500000	0.000000  
250.000000	0.000000  
250.500000	0.000000  
251.000000	0.000000  
251.500000	0.000000  
252.000000	0.000000  
252.500000	0.000000  
253.000000	0.000000  
253.500000	0.000000  
254.000000	0.000000  
254.500000	0.000000  
255.000000	0.000000  
255.500000	0.000000  
256.000000	0.000000  
256.500000	0.000000  
257.000000	0.000000  
257.500000	0.000000  
258.000000	0.000000  
258.500000	0.000000  
259.000000	0.000000  
259.500000	0.000000  
260.000000	0.000000  
260.500000	0.000000  
261.000000	0.000000  
261.500000	0.000000  
262.000000	0.000000  
262.500000	0.000000  
263.000000	0.000000  
263.500000	0.000000  
264.000000	0.000000  
264.500000	0.000000  
265.000000	0.000000  
265.500000	0.000000  
266.000000	0.000000  
266.500000	0.000000  
267.000000	0.000000  
267.500000	0.000000  
268.000000	0.000000  
268.500000	0.000000  
269.000000	0.000000  
269.500000	0.000000  
270.000000	0.000000  
270.500000	0.000000  
271.000000	0.000000  
271.500000	0.000000  
272.000000	0.000000  
272.500000	0.000000  
273.000000	0.000000  
273.500000	0.000000  
274.000000	0.000000  
274.500000	0.000000  
275.000000	0.000000  
275.500000	0.000000  
276.000000	0.000000  
276.500000	0.000000  
277.000000	0.000000  
277.500000	0.000000  
278.000000	0.000000  
278.500000	0.000000  
279.000000	0.000000  
279.500000	0.000000  
280.000000	0.000000  
280.500000	0.000000  
281.000000	0.000000  
281.500000	0.000000  
282.000000	0.000000  
282.500000	0.000000  
283.000000	0.000000  
283.500000	0.000000  
284.000000	0.000000  
284.500000	0.000000  
285.000000	0.000000  
285.500000	0.000000  
286.000000	0.000000  
286.500000	0.000000  
287.000000	0.000000  
287.500000	0.000000  
288.000000	0.000000  
288.500000	0.000000  
289.000000	0.000000  
289.500000	0.000000  
290.000000	0.000000  
290.500000	0.000000  
291.000000	0.000000  
291.500000	0.000000  
292.000000	0.000000  
292.500000	0.000000  
293.000000	0.000000  
293.500000	0.000000  
294.000000	0.000000  
294.500000	0.000000  
295.000000	0.000000  
295.500000	0.000000  
296.000000	0.000000  
296.500000	0.000000  
297.000000	0.000000  
297.500000	0.000000  
298.000000	0.000000  
298.500000	0.000000  
299.000000	0.000000  
299.500000	0.000000  
300.000000	0.000000  
300.500000	0.000000  
301.000000	0.000000  
301.500000	0.000000  
302.000000	0.000000  
302.500000	0.000000  
303.000000	0.000000  
303.500000	0.000000  
304.000000	0.000000  
304.500000	0.000000  
305.000000	0.000000  
305.500000	0.000000  
306.000000	0.000000  
306.500000	0.000000  
307.000000	-0.000060 
307.500000	-0.000053 
308.000000	0.000409  
308.500000	0.000984  
309.000000	0.001090  
309.500000	0.000560  
310.000000	0.000484  
310.500000	0.000863  
311.000000	0.001090  
311.500000	0.000560  
312.000000	0.000484  
312.500000	0.000863  
313.000000	0.001151  
313.500000	0.000613  
314.000000	0.000075  
314.500000	-0.000121 
315.000000	0.000000  
315.500000	0.000000  
316.000000	0.000000  
316.500000	0.000000  
317.000000	0.000000  
317.500000	0.000000  
318.000000	0.000000  
318.500000	0.000000  
319.000000	0.000000  
319.500000	0.000000  
320.000000	0.000000  
320.500000	0.000000  
321.000000	0.000000  
321.500000	0.000000  
322.000000	0.000000  
322.500000	0.000000  
323.000000	0.000000  
323.500000	0.000000  
324.000000	0.000000  
324.500000	0.000000  
325.000000	0.000000  
325.500000	0.000000  
326.000000	0.000000  
326.500000	0.000000  
327.000000	0.000000  
327.500000	0.000000  
328.000000	0.000000  
328.500000	0.000000  
329.000000	0.000000  
329.500000	0.000000  
330.000000	0.000000  
330.500000	0.000000  
331.000000	0.000000  
331.500000	0.000000  
332.000000	0.000000  
332.500000	0.000000  
333.000000	0.000000  
333.500000	0.000000  
334.000000	0.000000  
334.500000	0.000000  
335.000000	0.000000  
335.500000	0.000000  
336.000000	0.000000  
336.500000	0.000000  
337.000000	0.000000  
337.500000	0.000000  
338.000000	0.000000  
338.500000	0.000000  
339.000000	0.000000  
339.500000	0.000000  
340.000000	0.000000  
340.500000	0.000000  
341.000000	0.000000  
341.500000	0.000000  
342.000000	0.000000  
342.500000	0.000000  
343.000000	0.000000  
343.500000	0.000000  
344.000000	0.000000  
344.500000	0.000000  
345.000000	0.000000  
345.500000	0.000000  
346.000000	0.000000  
346.500000	0.000000  
347.000000	0.000000  
347.500000	0.000000  
348.000000	0.000000  
348.500000	0.000000  
349.000000	0.000000  
349.500000	-0.000060 
350.000000	-0.000053 
350.500000	0.000409  
351.000000	0.000984  
351.500000	0.001151  
352.000000	0.000613  
352.500000	0.000075  
353.000000	-0.000121 
353.500000	0.000000  
354.000000	0.000000  
354.500000	0.000000  
355.000000	0.000000  
355.500000	0.000000  
356.000000	0.000000  
356.500000	0.000000  
357.000000	0.000000  
357.500000	0.000000  
358.000000	0.000000  
358.500000	0.000000  
359.000000	0.000000  
359.500000	0.000000  
360.000000	0.000000  
360.500000	0.000000  
361.000000	0.000000  
361.500000	0.000000  
362.000000	0.000000  
362.500000	0.000000  
363.000000	-0.000060 
363.500000	-0.000053 
364.000000	0.000409  
364.500000	0.000984  
365.000000	0.001151  
365.500000	0.000613  
366.000000	0.000075  
366.500000	-0.000121 
367.000000	0.000000  
367.500000	-0.000060 
368.000000	-0.000053 
368.500000	0.000409  
369.000000	0.000984  
369.500000	0.001151  
370.000000	0.000613  
370.500000	0.000075  
371.000000	-0.000121 
371.500000	0.000000  
372.000000	0.000000  
372.500000	0.000000  
373.000000	0.000000  
373.500000	0.000000  
374.000000	0.000000  
374.500000	0.000000  
375.000000	0.000000  
375.500000	-0.000060 
376.000000	-0.000053 
376.500000	0.000409  
377.000000	0.000984  
377.500000	0.001151  
378.000000	0.000613  
378.500000	0.000075  
379.000000	-0.000121 
379.500000	0.000000  
380.000000	0.000000  
380.500000	0.000000  
381.000000	0.000000  
381.500000	0.000000  
382.000000	0.000000  
382.500000	0.000000  
383.000000	-0.000060 
383.500000	0.000007  
384.000000	0.000340  
384.500000	0.000712  
385.000000	0.000651  
385.500000	0.000348  
386.000000	0.000348  
386.500000	0.000651  
387.000000	0.000712  
387.500000	0.000340  
388.000000	0.000007  
388.500000	-0.000060 
389.000000	0.000000  
389.500000	0.000000  
390.000000	0.000000  
390.500000	0.000000  
391.000000	0.000000  
391.500000	0.000000  
392.000000	0.000000  
392.500000	0.000000  
393.000000	0.000000  
393.500000	0.000000  
394.000000	0.000000  
394.500000	-0.000060 
395.000000	0.000007  
395.500000	0.000340  
396.000000	0.000712  
396.500000	0.000712  
397.000000	0.000280  
397.500000	0.000015  
398.000000	0.000280  
398.500000	0.000712  
399.000000	0.000712  
399.500000	0.000401  
400.000000	-0.000000 

