PE FL                   SPECTRUM    ASCII       PEDS        1.60        
  -1
01#134.SP
02/03/17
01:59:57.00
02/03/17
02:01:01.00


419.500000
1









LS55
310.00
5.00
5.00
SCAN
1
20
100
100
0
100
0
1
0
1
7
ON
550 310 
1 0 0
#HDR
-1
-1
#GR
NM

0.00002384185791015625
0.0
330.000000
0.500000
180
8
0.031000
-0.000287
#DATA
330.000000	0.000000  
330.500000	0.000409  
331.000000	0.000810  
331.500000	0.001333  
332.000000	0.002431  
332.500000	0.003818  
333.000000	0.004045  
333.500000	0.002848  
334.000000	0.002416  
334.500000	0.003992  
335.000000	0.005363  
335.500000	0.004674  
336.000000	0.002871  
336.500000	0.001886  
337.000000	0.002287  
337.500000	0.002757  
338.000000	0.002939  
338.500000	0.003250  
339.000000	0.003613  
339.500000	0.002992  
340.000000	0.001522  
340.500000	0.000446  
341.000000	0.000628  
341.500000	0.001439  
342.000000	0.001250  
342.500000	0.001833  
343.000000	0.003977  
343.500000	0.006454  
344.000000	0.006196  
344.500000	0.003371  
345.000000	0.000962  
345.500000	0.000984  
346.000000	0.001962  
346.500000	0.002174  
347.000000	0.001674  
347.500000	0.001045  
348.000000	0.000378  
348.500000	0.000431  
349.000000	0.001272  
349.500000	0.002136  
350.000000	0.001765  
350.500000	0.000689  
351.000000	-0.000045 
351.500000	-0.000121 
352.000000	-0.000060 
352.500000	-0.000113 
353.000000	0.000356  
353.500000	0.001393  
354.000000	0.002136  
354.500000	0.001765  
355.000000	0.000628  
355.500000	-0.000098 
356.000000	0.000287  
356.500000	0.000984  
357.000000	0.001151  
357.500000	0.000613  
358.000000	0.000075  
358.500000	-0.000121 
359.000000	0.000000  
359.500000	0.000000  
360.000000	0.000000  
360.500000	0.000000  
361.000000	-0.000060 
361.500000	-0.000113 
362.000000	0.000295  
362.500000	0.001219  
363.000000	0.002378  
363.500000	0.003515  
364.000000	0.003916  
364.500000	0.004196  
365.000000	0.003696  
365.500000	0.002840  
366.000000	0.001136  
366.500000	-0.000075 
367.000000	-0.000287 
367.500000	0.002765  
368.000000	0.005856  
368.500000	0.006946  
369.000000	0.004272  
369.500000	0.001424  
370.000000	0.000242  
370.500000	0.001416  
371.000000	0.002424  
371.500000	0.002750  
372.000000	0.001719  
372.500000	0.000340  
373.000000	0.000666  
373.500000	0.002363  
374.000000	0.004553  
374.500000	0.004840  
375.000000	0.003924  
375.500000	0.002022  
376.000000	0.001378  
376.500000	0.002537  
377.000000	0.004318  
377.500000	0.005681  
378.000000	0.006075  
378.500000	0.005992  
379.000000	0.004537  
379.500000	0.002962  
380.000000	0.002651  
380.500000	0.004590  
381.000000	0.005613  
381.500000	0.004022  
382.000000	0.001719  
382.500000	0.001560  
383.000000	0.003803  
383.500000	0.005780  
384.000000	0.006136  
384.500000	0.005280  
385.000000	0.003727  
385.500000	0.003053  
386.000000	0.005219  
386.500000	0.008166  
387.000000	0.008045  
387.500000	0.005477  
388.000000	0.003462  
388.500000	0.004303  
389.000000	0.004734  
389.500000	0.004446  
390.000000	0.003325  
390.500000	0.003037  
391.000000	0.003530  
391.500000	0.005606  
392.000000	0.007234  
392.500000	0.006712  
393.000000	0.007628  
393.500000	0.009719  
394.000000	0.011287  
394.500000	0.008863  
395.000000	0.006030  
395.500000	0.004272  
396.000000	0.007840  
396.500000	0.011159  
397.000000	0.014325  
397.500000	0.013015  
398.000000	0.011659  
398.500000	0.012696  
399.000000	0.015128  
399.500000	0.013568  
400.000000	0.010151  
400.500000	0.008000  
401.000000	0.010568  
401.500000	0.014734  
402.000000	0.016090  
402.500000	0.016166  
403.000000	0.016636  
403.500000	0.016696  
404.000000	0.016553  
404.500000	0.018613  
405.000000	0.019651  
405.500000	0.018303  
406.000000	0.011803  
406.500000	0.007856  
407.000000	0.008628  
407.500000	0.012393  
408.000000	0.016318  
408.500000	0.022303  
409.000000	0.024295  
409.500000	0.018848  
410.000000	0.013015  
410.500000	0.015393  
411.000000	0.022340  
411.500000	0.023530  
412.000000	0.018568  
412.500000	0.015636  
413.000000	0.017840  
413.500000	0.019553  
414.000000	0.020712  
414.500000	0.020901  
415.000000	0.018530  
415.500000	0.014909  
416.000000	0.013128  
416.500000	0.013424  
417.000000	0.014621  
417.500000	0.013280  
418.000000	0.014575  
418.500000	0.019439  
419.000000	0.025878  
419.500000	0.031000  

