PE FL                   SPECTRUM    ASCII       PEDS        1.60        
  -1
01#141.SP
02/03/17
02:31:05.00
02/03/17
02:41:38.00


650.000000
1









LS55
370.00
5.00
5.00
SCAN
1
20
100
100
0
25
0
1
0
1
7
ON
430 410 
1 0 0
#HDR
-1
-1
#GR
NM

0.00002384185791015625
0.0
390.000000
0.500000
521
8
0.056962
-0.000234
#DATA
390.000000	0.034000  
390.500000	0.033553  
391.000000	0.031825  
391.500000	0.029666  
392.000000	0.028015  
392.500000	0.028378  
393.000000	0.029159  
393.500000	0.030106  
394.000000	0.029075  
394.500000	0.027727  
395.000000	0.026659  
395.500000	0.026196  
396.000000	0.024992  
396.500000	0.023863  
397.000000	0.023143  
397.500000	0.023378  
398.000000	0.025537  
398.500000	0.028984  
399.000000	0.030234  
399.500000	0.028659  
400.000000	0.024795  
400.500000	0.023159  
401.000000	0.022765  
401.500000	0.024659  
402.000000	0.026250  
402.500000	0.027734  
403.000000	0.026325  
403.500000	0.025530  
404.000000	0.026136  
404.500000	0.028545  
405.000000	0.028583  
405.500000	0.027037  
406.000000	0.026537  
406.500000	0.028431  
407.000000	0.028560  
407.500000	0.027356  
408.000000	0.025030  
408.500000	0.024712  
409.000000	0.025181  
409.500000	0.026712  
410.000000	0.027363  
410.500000	0.029272  
411.000000	0.030765  
411.500000	0.030371  
412.000000	0.026613  
412.500000	0.023598  
413.000000	0.023484  
413.500000	0.026371  
414.000000	0.030409  
414.500000	0.035128  
415.000000	0.036401  
415.500000	0.033946  
416.000000	0.031424  
416.500000	0.034090  
417.000000	0.037446  
417.500000	0.037439  
418.000000	0.034265  
418.500000	0.032659  
419.000000	0.033643  
419.500000	0.036590  
420.000000	0.038295  
420.500000	0.040136  
421.000000	0.040439  
421.500000	0.041598  
422.000000	0.042522  
422.500000	0.045757  
423.000000	0.046272  
423.500000	0.044401  
424.000000	0.041166  
424.500000	0.042742  
425.000000	0.047272  
425.500000	0.051840  
426.000000	0.054318  
426.500000	0.055439  
427.000000	0.055083  
427.500000	0.055537  
428.000000	0.056962  
428.500000	0.056484  
429.000000	0.051136  
429.500000	0.045522  
430.000000	0.041992  
430.500000	0.040386  
431.000000	0.037409  
431.500000	0.033939  
432.000000	0.032583  
432.500000	0.034522  
433.000000	0.037318  
433.500000	0.038030  
434.000000	0.034818  
434.500000	0.032477  
435.000000	0.033780  
435.500000	0.037303  
436.000000	0.037083  
436.500000	0.034037  
437.000000	0.030856  
437.500000	0.028969  
438.000000	0.025757  
438.500000	0.021946  
439.000000	0.023128  
439.500000	0.029098  
440.000000	0.033613  
440.500000	0.031999  
441.000000	0.027174  
441.500000	0.025598  
442.000000	0.027325  
442.500000	0.029765  
443.000000	0.029242  
443.500000	0.029795  
444.000000	0.030484  
444.500000	0.030750  
445.000000	0.027606  
445.500000	0.024257  
446.000000	0.023795  
446.500000	0.025734  
447.000000	0.027333  
447.500000	0.027659  
448.000000	0.026886  
448.500000	0.025393  
449.000000	0.023545  
449.500000	0.021803  
450.000000	0.020136  
450.500000	0.019568  
451.000000	0.017545  
451.500000	0.015704  
452.000000	0.015189  
452.500000	0.019136  
453.000000	0.022469  
453.500000	0.022696  
454.000000	0.019030  
454.500000	0.015727  
455.000000	0.013583  
455.500000	0.014333  
456.000000	0.016219  
456.500000	0.018121  
457.000000	0.017393  
457.500000	0.015007  
458.000000	0.013128  
458.500000	0.012121  
459.000000	0.011234  
459.500000	0.011030  
460.000000	0.011765  
460.500000	0.013060  
461.000000	0.013886  
461.500000	0.013068  
462.000000	0.010901  
462.500000	0.008340  
463.000000	0.007424  
463.500000	0.008537  
464.000000	0.008825  
464.500000	0.007613  
465.000000	0.006439  
465.500000	0.008030  
466.000000	0.009333  
466.500000	0.008863  
467.000000	0.006613  
467.500000	0.005530  
468.000000	0.005606  
468.500000	0.006780  
469.000000	0.007719  
469.500000	0.007568  
470.000000	0.006810  
470.500000	0.006015  
471.000000	0.005992  
471.500000	0.005704  
472.000000	0.004659  
472.500000	0.003515  
473.000000	0.003363  
473.500000	0.003863  
474.000000	0.004151  
474.500000	0.003613  
475.000000	0.003136  
475.500000	0.002992  
476.000000	0.002643  
476.500000	0.001666  
477.000000	0.000916  
477.500000	0.000886  
478.000000	0.001318  
478.500000	0.001371  
479.000000	0.001818  
479.500000	0.003174  
480.000000	0.005166  
480.500000	0.005318  
481.000000	0.003568  
481.500000	0.001431  
482.000000	0.001189  
482.500000	0.002128  
483.000000	0.003053  
483.500000	0.003522  
484.000000	0.003522  
484.500000	0.003636  
485.000000	0.003500  
485.500000	0.003143  
486.000000	0.002378  
486.500000	0.002454  
487.000000	0.003250  
487.500000	0.004136  
488.000000	0.003848  
488.500000	0.002780  
489.000000	0.001598  
489.500000	0.000568  
490.000000	-0.000106 
490.500000	-0.000234 
491.000000	0.000295  
491.500000	0.001219  
492.000000	0.002439  
492.500000	0.003507  
493.000000	0.003757  
493.500000	0.003219  
494.000000	0.002053  
494.500000	0.001416  
495.000000	0.001659  
495.500000	0.003030  
496.000000	0.003553  
496.500000	0.002878  
497.000000	0.001537  
497.500000	0.001424  
498.000000	0.001893  
498.500000	0.001765  
499.000000	0.000628  
499.500000	-0.000098 
500.000000	0.000287  
500.500000	0.000984  
501.000000	0.001151  
501.500000	0.000613  
502.000000	0.000075  
502.500000	-0.000121 
503.000000	0.000000  
503.500000	0.000000  
504.000000	0.000000  
504.500000	0.000000  
505.000000	0.000000  
505.500000	0.000000  
506.000000	0.000000  
506.500000	-0.000060 
507.000000	-0.000053 
507.500000	0.000409  
508.000000	0.000924  
508.500000	0.001098  
509.000000	0.001022  
509.500000	0.001060  
510.000000	0.001030  
510.500000	0.000613  
511.000000	0.000075  
511.500000	-0.000121 
512.000000	0.000000  
512.500000	0.000000  
513.000000	0.000000  
513.500000	0.000000  
514.000000	0.000000  
514.500000	0.000000  
515.000000	0.000000  
515.500000	0.000000  
516.000000	0.000000  
516.500000	0.000000  
517.000000	0.000000  
517.500000	0.000000  
518.000000	0.000000  
518.500000	0.000000  
519.000000	0.000000  
519.500000	0.000000  
520.000000	0.000000  
520.500000	0.000000  
521.000000	0.000000  
521.500000	0.000000  
522.000000	0.000000  
522.500000	0.000000  
523.000000	-0.000060 
523.500000	-0.000053 
524.000000	0.000409  
524.500000	0.000984  
525.000000	0.001151  
525.500000	0.000613  
526.000000	0.000075  
526.500000	-0.000121 
527.000000	0.000000  
527.500000	0.000000  
528.000000	0.000000  
528.500000	0.000000  
529.000000	0.000000  
529.500000	0.000000  
530.000000	0.000000  
530.500000	0.000000  
531.000000	0.000000  
531.500000	0.000000  
532.000000	0.000000  
532.500000	0.000000  
533.000000	0.000000  
533.500000	0.000000  
534.000000	0.000000  
534.500000	0.000000  
535.000000	0.000000  
535.500000	0.000000  
536.000000	0.000000  
536.500000	0.000000  
537.000000	0.000000  
537.500000	0.000000  
538.000000	0.000000  
538.500000	0.000000  
539.000000	0.000000  
539.500000	0.000000  
540.000000	0.000000  
540.500000	0.000000  
541.000000	0.000000  
541.500000	0.000000  
542.000000	0.000000  
542.500000	0.000000  
543.000000	0.000000  
543.500000	0.000000  
544.000000	0.000000  
544.500000	0.000000  
545.000000	0.000000  
545.500000	0.000000  
546.000000	0.000000  
546.500000	0.000000  
547.000000	0.000000  
547.500000	0.000000  
548.000000	0.000000  
548.500000	0.000000  
549.000000	0.000000  
549.500000	0.000000  
550.000000	0.000000  
550.500000	0.000000  
551.000000	0.000000  
551.500000	0.000000  
552.000000	0.000000  
552.500000	0.000000  
553.000000	0.000000  
553.500000	0.000000  
554.000000	0.000000  
554.500000	0.000000  
555.000000	0.000000  
555.500000	0.000000  
556.000000	0.000000  
556.500000	0.000000  
557.000000	0.000000  
557.500000	0.000000  
558.000000	0.000000  
558.500000	0.000000  
559.000000	0.000000  
559.500000	0.000000  
560.000000	0.000000  
560.500000	0.000000  
561.000000	0.000000  
561.500000	0.000000  
562.000000	0.000000  
562.500000	0.000000  
563.000000	0.000000  
563.500000	0.000000  
564.000000	0.000000  
564.500000	0.000000  
565.000000	0.000000  
565.500000	0.000000  
566.000000	0.000000  
566.500000	0.000000  
567.000000	0.000000  
567.500000	0.000000  
568.000000	0.000000  
568.500000	0.000000  
569.000000	0.000000  
569.500000	0.000000  
570.000000	0.000000  
570.500000	0.000000  
571.000000	0.000000  
571.500000	0.000000  
572.000000	0.000000  
572.500000	0.000000  
573.000000	0.000000  
573.500000	0.000000  
574.000000	0.000000  
574.500000	0.000000  
575.000000	0.000000  
575.500000	0.000000  
576.000000	0.000000  
576.500000	0.000000  
577.000000	0.000000  
577.500000	0.000000  
578.000000	0.000000  
578.500000	0.000000  
579.000000	0.000000  
579.500000	0.000000  
580.000000	0.000000  
580.500000	0.000000  
581.000000	0.000000  
581.500000	0.000000  
582.000000	0.000000  
582.500000	0.000000  
583.000000	0.000000  
583.500000	0.000000  
584.000000	0.000000  
584.500000	0.000000  
585.000000	0.000000  
585.500000	0.000000  
586.000000	0.000000  
586.500000	0.000000  
587.000000	0.000000  
587.500000	0.000000  
588.000000	0.000000  
588.500000	0.000000  
589.000000	0.000000  
589.500000	0.000000  
590.000000	0.000000  
590.500000	0.000000  
591.000000	0.000000  
591.500000	0.000000  
592.000000	0.000000  
592.500000	0.000000  
593.000000	0.000000  
593.500000	0.000000  
594.000000	0.000000  
594.500000	0.000000  
595.000000	0.000000  
595.500000	0.000000  
596.000000	0.000000  
596.500000	0.000000  
597.000000	0.000000  
597.500000	0.000000  
598.000000	0.000000  
598.500000	0.000000  
599.000000	0.000000  
599.500000	0.000000  
600.000000	0.000000  
600.500000	0.000000  
601.000000	0.000000  
601.500000	0.000000  
602.000000	0.000000  
602.500000	0.000000  
603.000000	0.000000  
603.500000	0.000000  
604.000000	0.000000  
604.500000	0.000000  
605.000000	0.000000  
605.500000	0.000000  
606.000000	0.000000  
606.500000	0.000000  
607.000000	0.000000  
607.500000	0.000000  
608.000000	0.000000  
608.500000	0.000000  
609.000000	0.000000  
609.500000	0.000000  
610.000000	0.000000  
610.500000	0.000000  
611.000000	0.000000  
611.500000	0.000000  
612.000000	0.000000  
612.500000	0.000000  
613.000000	0.000000  
613.500000	0.000000  
614.000000	0.000000  
614.500000	0.000000  
615.000000	0.000000  
615.500000	0.000000  
616.000000	0.000000  
616.500000	0.000000  
617.000000	0.000000  
617.500000	0.000000  
618.000000	0.000000  
618.500000	0.000000  
619.000000	0.000000  
619.500000	0.000000  
620.000000	0.000000  
620.500000	0.000000  
621.000000	0.000000  
621.500000	0.000000  
622.000000	0.000000  
622.500000	0.000000  
623.000000	0.000000  
623.500000	0.000000  
624.000000	0.000000  
624.500000	0.000000  
625.000000	0.000000  
625.500000	0.000000  
626.000000	0.000000  
626.500000	0.000000  
627.000000	0.000000  
627.500000	0.000000  
628.000000	0.000000  
628.500000	0.000000  
629.000000	0.000000  
629.500000	0.000000  
630.000000	0.000000  
630.500000	0.000000  
631.000000	0.000000  
631.500000	0.000000  
632.000000	0.000000  
632.500000	0.000000  
633.000000	0.000000  
633.500000	0.000000  
634.000000	0.000000  
634.500000	0.000000  
635.000000	0.000000  
635.500000	0.000000  
636.000000	0.000000  
636.500000	0.000000  
637.000000	0.000000  
637.500000	0.000000  
638.000000	0.000000  
638.500000	0.000000  
639.000000	0.000000  
639.500000	0.000000  
640.000000	0.000000  
640.500000	0.000000  
641.000000	0.000000  
641.500000	0.000000  
642.000000	0.000000  
642.500000	0.000000  
643.000000	0.000000  
643.500000	0.000000  
644.000000	0.000000  
644.500000	0.000000  
645.000000	0.000000  
645.500000	0.000000  
646.000000	0.000000  
646.500000	0.000000  
647.000000	0.000000  
647.500000	0.000000  
648.000000	0.000000  
648.500000	0.000000  
649.000000	0.000000  
649.500000	0.000000  
650.000000	0.000000  

