PE FL                   SPECTRUM    ASCII       PEDS        1.60        
  -1
01#152.SP
02/03/17
03:32:48.00
02/03/17
03:35:29.00


580.000000
1









LS55
310.00
5.00
5.00
SCAN
1
20
100
100
0
100
0
1
0
1
7
ON
580 310 
1 0 0
#HDR
-1
-1
#GR
NM

0.00002384185791015625
0.0
330.000000
0.500000
501
8
0.006553
-0.000651
#DATA
330.000000	0.000000  
330.500000	0.000000  
331.000000	-0.000060 
331.500000	-0.000053 
332.000000	0.000409  
332.500000	0.000984  
333.000000	0.001090  
333.500000	0.000439  
334.000000	0.000318  
334.500000	0.001750  
335.000000	0.003393  
335.500000	0.003356  
336.000000	0.001515  
336.500000	0.000045  
337.000000	0.000106  
337.500000	0.000924  
338.000000	0.001098  
338.500000	0.001022  
339.000000	0.001060  
339.500000	0.001030  
340.000000	0.000613  
340.500000	0.000075  
341.000000	-0.000121 
341.500000	0.000000  
342.000000	0.000000  
342.500000	0.000000  
343.000000	-0.000060 
343.500000	-0.000113 
344.000000	0.000234  
344.500000	0.001227  
345.000000	0.003022  
345.500000	0.004007  
346.000000	0.003431  
346.500000	0.001454  
347.000000	0.000098  
347.500000	-0.000303 
348.000000	0.000000  
348.500000	0.000000  
349.000000	-0.000060 
349.500000	-0.000053 
350.000000	0.000409  
350.500000	0.000984  
351.000000	0.001151  
351.500000	0.000492  
352.000000	-0.000090 
352.500000	0.000765  
353.000000	0.002242  
353.500000	0.002742  
354.000000	0.001439  
354.500000	0.000166  
355.000000	0.000106  
355.500000	0.000984  
356.000000	0.001151  
356.500000	0.000613  
357.000000	0.000075  
357.500000	-0.000121 
358.000000	0.000000  
358.500000	0.000000  
359.000000	0.000000  
359.500000	-0.000121 
360.000000	-0.000166 
360.500000	0.000886  
361.000000	0.002242  
361.500000	0.002742  
362.000000	0.001500  
362.500000	0.000098  
363.000000	-0.000651 
363.500000	0.000969  
364.000000	0.003136  
364.500000	0.004431  
365.000000	0.003439  
365.500000	0.002840  
366.000000	0.003045  
366.500000	0.003234  
367.000000	0.001515  
367.500000	0.000045  
368.000000	0.000106  
368.500000	0.000984  
369.000000	0.001151  
369.500000	0.000553  
370.000000	0.000022  
370.500000	0.000287  
371.000000	0.000984  
371.500000	0.001151  
372.000000	0.000613  
372.500000	0.000075  
373.000000	-0.000121 
373.500000	0.000000  
374.000000	-0.000060 
374.500000	-0.000053 
375.000000	0.000409  
375.500000	0.000984  
376.000000	0.001151  
376.500000	0.000613  
377.000000	0.000075  
377.500000	-0.000121 
378.000000	0.000000  
378.500000	0.000000  
379.000000	0.000000  
379.500000	0.000000  
380.000000	0.000000  
380.500000	0.000000  
381.000000	0.000000  
381.500000	0.000000  
382.000000	0.000000  
382.500000	0.000000  
383.000000	0.000000  
383.500000	-0.000060 
384.000000	-0.000053 
384.500000	0.000409  
385.000000	0.000924  
385.500000	0.001098  
386.000000	0.001022  
386.500000	0.000999  
387.000000	0.000977  
387.500000	0.001022  
388.000000	0.001060  
388.500000	0.001030  
389.000000	0.000613  
389.500000	0.000075  
390.000000	-0.000181 
390.500000	-0.000053 
391.000000	0.000409  
391.500000	0.000984  
392.000000	0.001151  
392.500000	0.000613  
393.000000	0.000075  
393.500000	-0.000121 
394.000000	0.000000  
394.500000	0.000000  
395.000000	0.000000  
395.500000	0.000000  
396.000000	-0.000060 
396.500000	-0.000113 
397.000000	0.000356  
397.500000	0.001393  
398.000000	0.002136  
398.500000	0.001704  
399.000000	0.000636  
399.500000	0.000303  
400.000000	0.000810  
400.500000	0.001560  
401.000000	0.001537  
401.500000	0.001113  
402.000000	0.000848  
402.500000	0.001469  
403.000000	0.002015  
403.500000	0.001704  
404.000000	0.000636  
404.500000	0.000363  
405.000000	0.000803  
405.500000	0.001098  
406.000000	0.001022  
406.500000	0.000999  
407.000000	0.000977  
407.500000	0.001022  
408.000000	0.001060  
408.500000	0.001030  
409.000000	0.000613  
409.500000	0.000075  
410.000000	-0.000121 
410.500000	0.000000  
411.000000	0.000000  
411.500000	0.000000  
412.000000	0.000000  
412.500000	-0.000181 
413.000000	-0.000462 
413.500000	0.001386  
414.000000	0.004340  
414.500000	0.006553  
415.000000	0.005477  
415.500000	0.003250  
416.000000	0.001234  
416.500000	0.000568  
417.000000	-0.000106 
417.500000	-0.000174 
418.000000	0.000348  
418.500000	0.000931  
419.000000	0.001560  
419.500000	0.001598  
420.000000	0.001227  
420.500000	0.000492  
421.000000	0.000075  
421.500000	-0.000121 
422.000000	0.000000  
422.500000	0.000000  
423.000000	0.000000  
423.500000	0.000000  
424.000000	0.000000  
424.500000	0.000000  
425.000000	0.000000  
425.500000	0.000000  
426.000000	-0.000060 
426.500000	-0.000053 
427.000000	0.000409  
427.500000	0.000984  
428.000000	0.001151  
428.500000	0.000613  
429.000000	0.000015  
429.500000	-0.000174 
430.000000	0.000409  
430.500000	0.000984  
431.000000	0.001151  
431.500000	0.000613  
432.000000	0.000015  
432.500000	-0.000174 
433.000000	0.000409  
433.500000	0.000984  
434.000000	0.001151  
434.500000	0.000613  
435.000000	0.000075  
435.500000	-0.000121 
436.000000	0.000000  
436.500000	0.000000  
437.000000	0.000000  
437.500000	0.000000  
438.000000	0.000000  
438.500000	0.000000  
439.000000	0.000000  
439.500000	0.000000  
440.000000	0.000000  
440.500000	0.000000  
441.000000	0.000000  
441.500000	0.000000  
442.000000	0.000000  
442.500000	0.000000  
443.000000	0.000000  
443.500000	0.000000  
444.000000	0.000000  
444.500000	0.000000  
445.000000	-0.000121 
445.500000	-0.000166 
446.000000	0.000886  
446.500000	0.002242  
447.000000	0.002742  
447.500000	0.001500  
448.000000	0.000219  
448.500000	-0.000303 
449.000000	0.000000  
449.500000	0.000000  
450.000000	0.000000  
450.500000	0.000000  
451.000000	0.000000  
451.500000	0.000000  
452.000000	0.000000  
452.500000	0.000000  
453.000000	0.000000  
453.500000	0.000000  
454.000000	0.000000  
454.500000	0.000000  
455.000000	0.000000  
455.500000	0.000000  
456.000000	0.000000  
456.500000	0.000000  
457.000000	0.000000  
457.500000	0.000000  
458.000000	0.000000  
458.500000	0.000000  
459.000000	0.000000  
459.500000	0.000000  
460.000000	0.000000  
460.500000	0.000000  
461.000000	0.000000  
461.500000	0.000000  
462.000000	0.000000  
462.500000	0.000000  
463.000000	0.000000  
463.500000	0.000000  
464.000000	0.000000  
464.500000	0.000000  
465.000000	0.000000  
465.500000	0.000000  
466.000000	0.000000  
466.500000	0.000000  
467.000000	0.000000  
467.500000	0.000000  
468.000000	0.000000  
468.500000	0.000000  
469.000000	0.000000  
469.500000	0.000000  
470.000000	0.000000  
470.500000	0.000000  
471.000000	0.000000  
471.500000	0.000000  
472.000000	0.000000  
472.500000	0.000000  
473.000000	0.000000  
473.500000	0.000000  
474.000000	0.000000  
474.500000	0.000000  
475.000000	0.000000  
475.500000	0.000000  
476.000000	0.000000  
476.500000	0.000000  
477.000000	0.000000  
477.500000	0.000000  
478.000000	0.000000  
478.500000	0.000000  
479.000000	0.000000  
479.500000	0.000000  
480.000000	0.000000  
480.500000	0.000000  
481.000000	0.000000  
481.500000	0.000000  
482.000000	0.000000  
482.500000	0.000000  
483.000000	0.000000  
483.500000	0.000000  
484.000000	0.000000  
484.500000	0.000000  
485.000000	0.000000  
485.500000	0.000000  
486.000000	0.000000  
486.500000	0.000000  
487.000000	0.000000  
487.500000	0.000000  
488.000000	0.000000  
488.500000	0.000000  
489.000000	0.000000  
489.500000	0.000000  
490.000000	0.000000  
490.500000	0.000000  
491.000000	0.000000  
491.500000	0.000000  
492.000000	0.000000  
492.500000	0.000000  
493.000000	0.000000  
493.500000	0.000000  
494.000000	0.000000  
494.500000	0.000000  
495.000000	0.000000  
495.500000	0.000000  
496.000000	0.000000  
496.500000	0.000000  
497.000000	0.000000  
497.500000	0.000000  
498.000000	0.000000  
498.500000	0.000000  
499.000000	0.000000  
499.500000	0.000000  
500.000000	0.000000  
500.500000	0.000000  
501.000000	0.000000  
501.500000	0.000000  
502.000000	0.000000  
502.500000	0.000000  
503.000000	0.000000  
503.500000	0.000000  
504.000000	0.000000  
504.500000	0.000000  
505.000000	0.000000  
505.500000	0.000000  
506.000000	0.000000  
506.500000	0.000000  
507.000000	0.000000  
507.500000	0.000000  
508.000000	0.000000  
508.500000	0.000000  
509.000000	0.000000  
509.500000	0.000000  
510.000000	0.000000  
510.500000	0.000000  
511.000000	0.000000  
511.500000	0.000000  
512.000000	0.000000  
512.500000	0.000000  
513.000000	0.000000  
513.500000	0.000000  
514.000000	0.000000  
514.500000	0.000000  
515.000000	0.000000  
515.500000	0.000000  
516.000000	0.000000  
516.500000	0.000000  
517.000000	0.000000  
517.500000	0.000000  
518.000000	0.000000  
518.500000	0.000000  
519.000000	0.000000  
519.500000	0.000000  
520.000000	0.000000  
520.500000	0.000000  
521.000000	0.000000  
521.500000	0.000000  
522.000000	0.000000  
522.500000	0.000000  
523.000000	0.000000  
523.500000	0.000000  
524.000000	0.000000  
524.500000	0.000000  
525.000000	0.000000  
525.500000	0.000000  
526.000000	0.000000  
526.500000	0.000000  
527.000000	0.000000  
527.500000	0.000000  
528.000000	0.000000  
528.500000	0.000000  
529.000000	0.000000  
529.500000	0.000000  
530.000000	0.000000  
530.500000	0.000000  
531.000000	0.000000  
531.500000	0.000000  
532.000000	0.000000  
532.500000	0.000000  
533.000000	0.000000  
533.500000	0.000000  
534.000000	0.000000  
534.500000	0.000000  
535.000000	0.000000  
535.500000	0.000000  
536.000000	0.000000  
536.500000	0.000000  
537.000000	0.000000  
537.500000	0.000000  
538.000000	0.000000  
538.500000	0.000000  
539.000000	0.000000  
539.500000	0.000000  
540.000000	0.000000  
540.500000	0.000000  
541.000000	0.000000  
541.500000	0.000000  
542.000000	0.000000  
542.500000	0.000000  
543.000000	0.000000  
543.500000	0.000000  
544.000000	0.000000  
544.500000	0.000000  
545.000000	0.000000  
545.500000	0.000000  
546.000000	0.000000  
546.500000	0.000000  
547.000000	0.000000  
547.500000	0.000000  
548.000000	0.000000  
548.500000	0.000000  
549.000000	0.000000  
549.500000	0.000000  
550.000000	0.000000  
550.500000	0.000000  
551.000000	0.000000  
551.500000	0.000000  
552.000000	0.000000  
552.500000	0.000000  
553.000000	0.000000  
553.500000	0.000000  
554.000000	0.000000  
554.500000	0.000000  
555.000000	0.000000  
555.500000	0.000000  
556.000000	0.000000  
556.500000	0.000000  
557.000000	0.000000  
557.500000	0.000000  
558.000000	0.000000  
558.500000	0.000000  
559.000000	0.000000  
559.500000	0.000000  
560.000000	0.000000  
560.500000	0.000000  
561.000000	0.000000  
561.500000	0.000000  
562.000000	0.000000  
562.500000	0.000000  
563.000000	0.000000  
563.500000	0.000000  
564.000000	0.000000  
564.500000	0.000000  
565.000000	0.000000  
565.500000	0.000000  
566.000000	0.000000  
566.500000	0.000000  
567.000000	0.000000  
567.500000	0.000000  
568.000000	0.000000  
568.500000	0.000000  
569.000000	0.000000  
569.500000	0.000000  
570.000000	0.000000  
570.500000	0.000000  
571.000000	0.000000  
571.500000	0.000000  
572.000000	0.000000  
572.500000	0.000000  
573.000000	0.000000  
573.500000	0.000000  
574.000000	0.000000  
574.500000	0.000000  
575.000000	0.000000  
575.500000	0.000000  
576.000000	0.000000  
576.500000	0.000000  
577.000000	0.000000  
577.500000	0.000000  
578.000000	0.000000  
578.500000	0.000000  
579.000000	0.000000  
579.500000	0.000000  
580.000000	0.000000  

