PE FL                   SPECTRUM    ASCII       PEDS        1.60        
  -1
01#146.SP
02/03/17
03:09:17.00
02/03/17
03:11:23.00


531.500000
1









LS55
310.00
5.00
5.00
SCAN
1
20
100
100
0
100
0
1
0
1
7
ON
580 310 
1 0 0
#HDR
-1
-1
#GR
NM

0.00002384185791015625
0.0
340.000000
0.500000
384
8
9.366030
0.662000
#DATA
340.000000	2.246999 
340.500000	2.278537 
341.000000	2.306719 
341.500000	2.337560 
342.000000	2.372424 
342.500000	2.407568 
343.000000	2.419742 
343.500000	2.428712 
344.000000	2.447022 
344.500000	2.476053 
345.000000	2.496151 
345.500000	2.496628 
346.000000	2.490507 
346.500000	2.509765 
347.000000	2.539833 
347.500000	2.564265 
348.000000	2.591151 
348.500000	2.607803 
349.000000	2.612590 
349.500000	2.619818 
350.000000	2.641765 
350.500000	2.668113 
351.000000	2.694272 
351.500000	2.716106 
352.000000	2.765356 
352.500000	2.805621 
353.000000	2.824393 
353.500000	2.816856 
354.000000	2.838484 
354.500000	2.863151 
355.000000	2.882454 
355.500000	2.870219 
356.000000	2.889848 
356.500000	2.931257 
357.000000	2.995295 
357.500000	3.006962 
358.000000	2.986568 
358.500000	2.940522 
359.000000	2.957363 
359.500000	3.020143 
360.000000	3.103212 
360.500000	3.125560 
361.000000	3.117295 
361.500000	3.096007 
362.000000	3.093257 
362.500000	3.109704 
363.000000	3.141590 
363.500000	3.191000 
364.000000	3.234151 
364.500000	3.250825 
365.000000	3.235174 
365.500000	3.234181 
366.000000	3.271151 
366.500000	3.337681 
367.000000	3.387772 
367.500000	3.419803 
368.000000	3.446446 
368.500000	3.493295 
369.000000	3.558280 
369.500000	3.636628 
370.000000	3.697727 
370.500000	3.725954 
371.000000	3.725810 
371.500000	3.753030 
372.000000	3.834242 
372.500000	3.926689 
373.000000	3.959060 
373.500000	3.964651 
374.000000	3.982628 
374.500000	4.046515 
375.000000	4.124068 
375.500000	4.223984 
376.000000	4.329704 
376.500000	4.418000 
377.000000	4.485651 
377.500000	4.559992 
378.000000	4.658000 
378.500000	4.739113 
379.000000	4.798075 
379.500000	4.845780 
380.000000	4.926068 
380.500000	5.034818 
381.000000	5.144022 
381.500000	5.228363 
382.000000	5.326393 
382.500000	5.457356 
383.000000	5.581143 
383.500000	5.639159 
384.000000	5.679333 
384.500000	5.744303 
385.000000	5.840651 
385.500000	5.947962 
386.000000	6.069340 
386.500000	6.197250 
387.000000	6.308212 
387.500000	6.419295 
388.000000	6.553401 
388.500000	6.683825 
389.000000	6.748939 
389.500000	6.753356 
390.000000	6.782916 
390.500000	6.877946 
391.000000	7.052666 
391.500000	7.224984 
392.000000	7.359727 
392.500000	7.431477 
393.000000	7.492795 
393.500000	7.536007 
394.000000	7.622750 
394.500000	7.719166 
395.000000	7.825386 
395.500000	7.892606 
396.000000	7.973053 
396.500000	8.066818 
397.000000	8.189484 
397.500000	8.270674 
398.000000	8.338719 
398.500000	8.387401 
399.000000	8.438499 
399.500000	8.486765 
400.000000	8.534825 
400.500000	8.563696 
401.000000	8.612280 
401.500000	8.701363 
402.000000	8.784257 
402.500000	8.822795 
403.000000	8.870234 
403.500000	8.940628 
404.000000	8.984742 
404.500000	8.953598 
405.000000	8.937984 
405.500000	8.978265 
406.000000	9.069992 
406.500000	9.134098 
407.000000	9.190204 
407.500000	9.185863 
408.000000	9.165590 
408.500000	9.164977 
409.000000	9.197249 
409.500000	9.205340 
410.000000	9.184333 
410.500000	9.191439 
411.000000	9.225515 
411.500000	9.245818 
412.000000	9.235136 
412.500000	9.256007 
413.000000	9.323295 
413.500000	9.366030 
414.000000	9.351734 
414.500000	9.291037 
415.000000	9.217712 
415.500000	9.163007 
416.000000	9.190507 
416.500000	9.281212 
417.000000	9.339977 
417.500000	9.319659 
418.000000	9.257401 
418.500000	9.209787 
419.000000	9.182159 
419.500000	9.188030 
420.000000	9.199462 
420.500000	9.182871 
421.000000	9.121916 
421.500000	9.104401 
422.000000	9.113606 
422.500000	9.103704 
423.000000	9.013962 
423.500000	8.935583 
424.000000	8.898606 
424.500000	8.928393 
425.000000	8.940386 
425.500000	8.849674 
426.000000	8.666499 
426.500000	8.521227 
427.000000	8.505454 
427.500000	8.568992 
428.000000	8.636022 
428.500000	8.608636 
429.000000	8.512863 
429.500000	8.378909 
430.000000	8.304098 
430.500000	8.279439 
431.000000	8.250704 
431.500000	8.157681 
432.000000	8.038765 
432.500000	7.947386 
433.000000	7.912606 
433.500000	7.905015 
434.000000	7.874325 
434.500000	7.815166 
435.000000	7.755242 
435.500000	7.671280 
436.000000	7.590439 
436.500000	7.519363 
437.000000	7.497560 
437.500000	7.459030 
438.000000	7.363734 
438.500000	7.207000 
439.000000	7.070446 
439.500000	7.000674 
440.000000	6.981689 
440.500000	6.938575 
441.000000	6.824045 
441.500000	6.710333 
442.000000	6.639613 
442.500000	6.601500 
443.000000	6.545212 
443.500000	6.438280 
444.000000	6.342969 
444.500000	6.294810 
445.000000	6.297356 
445.500000	6.265833 
446.000000	6.189553 
446.500000	6.089977 
447.000000	6.015757 
447.500000	5.926909 
448.000000	5.795393 
448.500000	5.667159 
449.000000	5.609446 
449.500000	5.626742 
450.000000	5.613553 
450.500000	5.529280 
451.000000	5.393053 
451.500000	5.261265 
452.000000	5.152621 
452.500000	5.070500 
453.000000	5.035825 
453.500000	5.015719 
454.000000	4.988939 
454.500000	4.919439 
455.000000	4.845272 
455.500000	4.723234 
456.000000	4.610431 
456.500000	4.527303 
457.000000	4.505856 
457.500000	4.476537 
458.000000	4.444287 
458.500000	4.404196 
459.000000	4.363340 
459.500000	4.305984 
460.000000	4.233954 
460.500000	4.158212 
461.000000	4.070765 
461.500000	3.995159 
462.000000	3.929477 
462.500000	3.878090 
463.000000	3.822969 
463.500000	3.781795 
464.000000	3.747962 
464.500000	3.715022 
465.000000	3.686901 
465.500000	3.642666 
466.000000	3.591401 
466.500000	3.523318 
467.000000	3.484295 
467.500000	3.445136 
468.000000	3.411446 
468.500000	3.358750 
469.000000	3.319689 
469.500000	3.271787 
470.000000	3.216878 
470.500000	3.139931 
471.000000	3.077393 
471.500000	3.038371 
472.000000	3.016318 
472.500000	3.009749 
473.000000	2.990159 
473.500000	2.958431 
474.000000	2.918022 
474.500000	2.900310 
475.000000	2.868075 
475.500000	2.819030 
476.000000	2.772242 
476.500000	2.756704 
477.000000	2.730265 
477.500000	2.665090 
478.000000	2.596560 
478.500000	2.568386 
479.000000	2.578613 
479.500000	2.576280 
480.000000	2.542318 
480.500000	2.492696 
481.000000	2.448416 
481.500000	2.410075 
482.000000	2.386666 
482.500000	2.374469 
483.000000	2.365454 
483.500000	2.333734 
484.000000	2.291681 
484.500000	2.242015 
485.000000	2.202212 
485.500000	2.165628 
486.000000	2.135871 
486.500000	2.103196 
487.000000	2.077750 
487.500000	2.052818 
488.000000	2.032750 
488.500000	2.001431 
489.000000	1.984613 
489.500000	1.978022 
490.000000	1.966143 
490.500000	1.935151 
491.000000	1.895159 
491.500000	1.864825 
492.000000	1.852666 
492.500000	1.843780 
493.000000	1.810219 
493.500000	1.772401 
494.000000	1.740863 
494.500000	1.716901 
495.000000	1.700265 
495.500000	1.694583 
496.000000	1.690606 
496.500000	1.663772 
497.000000	1.605363 
497.500000	1.563303 
498.000000	1.549553 
498.500000	1.555015 
499.000000	1.537204 
499.500000	1.501946 
500.000000	1.464924 
500.500000	1.457598 
501.000000	1.454606 
501.500000	1.433727 
502.000000	1.414128 
502.500000	1.419590 
503.000000	1.431098 
503.500000	1.423022 
504.000000	1.391901 
504.500000	1.370393 
505.000000	1.351575 
505.500000	1.318598 
506.000000	1.272484 
506.500000	1.257053 
507.000000	1.261378 
507.500000	1.256492 
508.000000	1.222333 
508.500000	1.193053 
509.000000	1.187068 
509.500000	1.180719 
510.000000	1.158083 
510.500000	1.138886 
511.000000	1.136696 
511.500000	1.129000 
512.000000	1.105893 
512.500000	1.074515 
513.000000	1.058159 
513.500000	1.039742 
514.000000	1.029143 
514.500000	1.018893 
515.000000	1.018333 
515.500000	1.005272 
516.000000	0.979477 
516.500000	0.946583 
517.000000	0.931409 
517.500000	0.941674 
518.000000	0.949106 
518.500000	0.934598 
519.000000	0.899583 
519.500000	0.889219 
520.000000	0.894878 
520.500000	0.895424 
521.000000	0.874371 
521.500000	0.856386 
522.000000	0.850583 
522.500000	0.848000 
523.000000	0.834795 
523.500000	0.820204 
524.000000	0.805878 
524.500000	0.797750 
525.000000	0.794992 
525.500000	0.802507 
526.000000	0.795924 
526.500000	0.772310 
527.000000	0.743295 
527.500000	0.738742 
528.000000	0.745636 
528.500000	0.752484 
529.000000	0.750871 
529.500000	0.745886 
530.000000	0.732159 
530.500000	0.711325 
531.000000	0.686984 
531.500000	0.662000 

