PE FL                   SPECTRUM    ASCII       PEDS        1.60        
  -1
01#154.SP
02/03/17
03:46:04.00
02/03/17
03:51:19.00


700.000000
1









LS55
300.00
5.00
5.00
SCAN
1
20
100
100
0
100
0
1
0
1
7
ON
580 310 
1 0 0
#HDR
-1
-1
#GR
NM

0.00002384185791015625
0.0
200.000000
0.500000
1001
8
7.388969
-0.000545
#DATA
200.000000	0.000000  
200.500000	0.000000  
201.000000	0.000000  
201.500000	0.000000  
202.000000	0.000000  
202.500000	0.000000  
203.000000	0.000000  
203.500000	0.000000  
204.000000	0.000000  
204.500000	0.000000  
205.000000	0.000000  
205.500000	0.000000  
206.000000	0.000000  
206.500000	0.000000  
207.000000	0.000000  
207.500000	0.000000  
208.000000	0.000000  
208.500000	0.000000  
209.000000	0.000000  
209.500000	0.000000  
210.000000	0.000000  
210.500000	0.000000  
211.000000	0.000000  
211.500000	0.000000  
212.000000	0.000000  
212.500000	0.000000  
213.000000	0.000000  
213.500000	0.000000  
214.000000	0.000000  
214.500000	0.000000  
215.000000	0.000000  
215.500000	0.000000  
216.000000	0.000000  
216.500000	0.000000  
217.000000	0.000000  
217.500000	0.000000  
218.000000	0.000000  
218.500000	0.000000  
219.000000	0.000000  
219.500000	0.000000  
220.000000	0.000000  
220.500000	0.000000  
221.000000	0.000000  
221.500000	0.000000  
222.000000	0.000000  
222.500000	0.000000  
223.000000	0.000000  
223.500000	0.000000  
224.000000	0.000000  
224.500000	0.000000  
225.000000	0.000000  
225.500000	0.000000  
226.000000	0.000000  
226.500000	0.000000  
227.000000	0.000000  
227.500000	0.000000  
228.000000	0.000000  
228.500000	0.000000  
229.000000	0.000000  
229.500000	0.000000  
230.000000	0.000000  
230.500000	0.000000  
231.000000	0.000000  
231.500000	0.000000  
232.000000	0.000000  
232.500000	0.000000  
233.000000	0.000000  
233.500000	0.000000  
234.000000	0.000000  
234.500000	0.000000  
235.000000	0.000000  
235.500000	0.000000  
236.000000	0.000000  
236.500000	0.000000  
237.000000	0.000000  
237.500000	0.000000  
238.000000	0.000000  
238.500000	0.000000  
239.000000	0.000000  
239.500000	0.000000  
240.000000	0.000000  
240.500000	0.000000  
241.000000	0.000000  
241.500000	0.000000  
242.000000	0.000000  
242.500000	0.000000  
243.000000	0.000000  
243.500000	0.000000  
244.000000	0.000000  
244.500000	0.000000  
245.000000	0.000000  
245.500000	0.000000  
246.000000	0.000000  
246.500000	0.000000  
247.000000	0.000000  
247.500000	0.000000  
248.000000	0.000000  
248.500000	0.000000  
249.000000	0.000000  
249.500000	0.000000  
250.000000	0.000000  
250.500000	0.000000  
251.000000	0.000000  
251.500000	0.000000  
252.000000	0.000000  
252.500000	0.000000  
253.000000	0.000000  
253.500000	0.000000  
254.000000	0.000000  
254.500000	0.000000  
255.000000	0.000000  
255.500000	0.000000  
256.000000	0.000000  
256.500000	0.000000  
257.000000	0.000000  
257.500000	0.000000  
258.000000	0.000000  
258.500000	0.000000  
259.000000	0.000000  
259.500000	0.000000  
260.000000	0.000000  
260.500000	0.000000  
261.000000	0.000000  
261.500000	0.000000  
262.000000	0.000000  
262.500000	0.000000  
263.000000	0.000000  
263.500000	0.000000  
264.000000	0.000000  
264.500000	0.000000  
265.000000	0.000000  
265.500000	0.000000  
266.000000	0.000000  
266.500000	0.000000  
267.000000	0.000000  
267.500000	0.000000  
268.000000	0.000000  
268.500000	0.000000  
269.000000	0.000000  
269.500000	0.000000  
270.000000	0.000000  
270.500000	0.000000  
271.000000	0.000000  
271.500000	0.000000  
272.000000	0.000000  
272.500000	0.000000  
273.000000	0.000000  
273.500000	0.000000  
274.000000	0.000000  
274.500000	0.000000  
275.000000	0.000000  
275.500000	0.000000  
276.000000	0.000000  
276.500000	0.000000  
277.000000	0.000000  
277.500000	0.000000  
278.000000	0.000000  
278.500000	0.000000  
279.000000	0.000000  
279.500000	0.000000  
280.000000	0.000000  
280.500000	0.000000  
281.000000	0.000000  
281.500000	0.000000  
282.000000	0.000000  
282.500000	0.000000  
283.000000	0.000000  
283.500000	0.000000  
284.000000	0.000000  
284.500000	0.000000  
285.000000	0.000000  
285.500000	0.000000  
286.000000	0.000000  
286.500000	0.000000  
287.000000	0.000000  
287.500000	0.000000  
288.000000	0.000000  
288.500000	0.000000  
289.000000	0.000000  
289.500000	-0.000060 
290.000000	-0.000053 
290.500000	0.000227  
291.000000	0.000583  
291.500000	0.001803  
292.000000	0.001977  
292.500000	0.002954  
293.000000	0.018545  
293.500000	0.072636  
294.000000	0.166000  
294.500000	0.280545  
295.000000	0.416606  
295.500000	0.602515  
296.000000	0.844560  
296.500000	1.142537  
297.000000	1.483015  
297.500000	1.893431  
298.000000	2.358000  
298.500000	2.861871  
299.000000	3.334659  
299.500000	3.792416  
300.000000	4.261166  
300.500000	4.742265  
301.000000	5.143931  
301.500000	5.402757  
302.000000	5.552356  
302.500000	5.609037  
303.000000	5.548795  
303.500000	5.326166  
304.000000	5.001856  
304.500000	4.600272  
305.000000	4.125106  
305.500000	3.585212  
306.000000	3.023787  
306.500000	2.497083  
307.000000	2.005106  
307.500000	1.552590  
308.000000	1.154030  
308.500000	0.845954  
309.000000	0.625734  
309.500000	0.473393  
310.000000	0.371007  
310.500000	0.307712  
311.000000	0.277803  
311.500000	0.256590  
312.000000	0.240045  
312.500000	0.233000  
313.000000	0.233583  
313.500000	0.235424  
314.000000	0.235242  
314.500000	0.237242  
315.000000	0.239007  
315.500000	0.231893  
316.000000	0.218378  
316.500000	0.209583  
317.000000	0.208719  
317.500000	0.213128  
318.000000	0.214560  
318.500000	0.215492  
319.000000	0.204000  
319.500000	0.188666  
320.000000	0.174280  
320.500000	0.167166  
321.000000	0.165462  
321.500000	0.169666  
322.000000	0.178954  
322.500000	0.179469  
323.000000	0.171954  
323.500000	0.165439  
324.000000	0.171159  
324.500000	0.178939  
325.000000	0.172621  
325.500000	0.157613  
326.000000	0.146340  
326.500000	0.147250  
327.000000	0.147765  
327.500000	0.146393  
328.000000	0.148159  
328.500000	0.157537  
329.000000	0.160515  
329.500000	0.148939  
330.000000	0.135121  
330.500000	0.122939  
331.000000	0.115651  
331.500000	0.105295  
332.000000	0.104886  
332.500000	0.106181  
333.000000	0.112242  
333.500000	0.111181  
334.000000	0.111568  
334.500000	0.105704  
335.000000	0.093916  
335.500000	0.087189  
336.000000	0.088734  
336.500000	0.092803  
337.000000	0.087651  
337.500000	0.077340  
338.000000	0.072863  
338.500000	0.072143  
339.000000	0.071386  
339.500000	0.065833  
340.000000	0.061856  
340.500000	0.056189  
341.000000	0.052787  
341.500000	0.051689  
342.000000	0.050280  
342.500000	0.050113  
343.000000	0.043363  
343.500000	0.039121  
344.000000	0.036492  
344.500000	0.042545  
345.000000	0.047674  
345.500000	0.047272  
346.000000	0.039454  
346.500000	0.036522  
347.000000	0.039553  
347.500000	0.042030  
348.000000	0.035386  
348.500000	0.032083  
349.000000	0.035878  
349.500000	0.041712  
350.000000	0.036272  
350.500000	0.027287  
351.000000	0.021893  
351.500000	0.023098  
352.000000	0.020727  
352.500000	0.015212  
353.000000	0.014181  
353.500000	0.020401  
354.000000	0.026674  
354.500000	0.024113  
355.000000	0.016674  
355.500000	0.012946  
356.000000	0.015121  
356.500000	0.016871  
357.000000	0.014977  
357.500000	0.011227  
358.000000	0.007553  
358.500000	0.006840  
359.000000	0.007507  
359.500000	0.008537  
360.000000	0.007893  
360.500000	0.008840  
361.000000	0.012719  
361.500000	0.016696  
362.000000	0.016765  
362.500000	0.011530  
363.000000	0.005431  
363.500000	0.001825  
364.000000	0.002704  
364.500000	0.005106  
365.000000	0.010015  
365.500000	0.012984  
366.000000	0.012560  
366.500000	0.006780  
367.000000	0.002757  
367.500000	0.003628  
368.000000	0.007803  
368.500000	0.007992  
369.000000	0.004598  
369.500000	0.003530  
370.000000	0.005613  
370.500000	0.007696  
371.000000	0.005780  
371.500000	0.003371  
372.000000	0.002280  
372.500000	0.003363  
373.000000	0.004795  
373.500000	0.005962  
374.000000	0.005181  
374.500000	0.002750  
375.000000	0.000409  
375.500000	-0.000393 
376.000000	0.000643  
376.500000	0.002075  
377.000000	0.003628  
377.500000	0.003681  
378.000000	0.002909  
378.500000	0.001484  
379.000000	0.001037  
379.500000	0.001674  
380.000000	0.002742  
380.500000	0.002931  
381.000000	0.002257  
381.500000	0.003969  
382.000000	0.006992  
382.500000	0.009212  
383.000000	0.007303  
383.500000	0.003969  
384.000000	0.001727  
384.500000	0.001371  
385.000000	0.001045  
385.500000	0.000378  
386.000000	0.000371  
386.500000	0.001219  
387.000000	0.002545  
387.500000	0.002689  
388.000000	0.001787  
388.500000	0.000977  
389.000000	0.000878  
389.500000	0.000795  
390.000000	0.000742  
390.500000	0.002424  
391.000000	0.004469  
391.500000	0.004893  
392.000000	0.002871  
392.500000	0.001166  
393.000000	0.000553  
393.500000	0.000969  
394.000000	0.001409  
394.500000	0.001962  
395.000000	0.002113  
395.500000	0.001621  
396.000000	0.001454  
396.500000	0.001424  
397.000000	0.001636  
397.500000	0.001416  
398.000000	0.001053  
398.500000	0.000734  
399.000000	0.001886  
399.500000	0.003219  
400.000000	0.003643  
400.500000	0.002393  
401.000000	0.002136  
401.500000	0.002553  
402.000000	0.002818  
402.500000	0.001318  
403.000000	0.000045  
403.500000	-0.000181 
404.000000	0.001704  
404.500000	0.004280  
405.000000	0.005598  
405.500000	0.004318  
406.000000	0.001598  
406.500000	-0.000143 
407.000000	-0.000356 
407.500000	0.000409  
408.000000	0.000924  
408.500000	0.001037  
409.000000	0.000909  
409.500000	0.001416  
410.000000	0.002303  
410.500000	0.002462  
411.000000	0.002560  
411.500000	0.003696  
412.000000	0.004939  
412.500000	0.004060  
413.000000	0.001606  
413.500000	0.000212  
414.000000	0.000977  
414.500000	0.002492  
415.000000	0.002856  
415.500000	0.002015  
416.000000	0.004075  
416.500000	0.008227  
417.000000	0.010856  
417.500000	0.007780  
418.000000	0.004174  
418.500000	0.002992  
419.000000	0.004037  
419.500000	0.002606  
420.000000	0.000545  
420.500000	0.000537  
421.000000	0.001712  
421.500000	0.003174  
422.000000	0.005530  
422.500000	0.008068  
423.000000	0.008053  
423.500000	0.005053  
424.000000	0.001803  
424.500000	0.000439  
425.000000	0.000325  
425.500000	0.000962  
426.000000	0.002121  
426.500000	0.002560  
427.000000	0.001219  
427.500000	0.001583  
428.000000	0.003196  
428.500000	0.004333  
429.000000	0.002325  
429.500000	0.000250  
430.000000	-0.000250 
430.500000	0.001166  
431.000000	0.002969  
431.500000	0.004295  
432.000000	0.004250  
432.500000	0.003492  
433.000000	0.002954  
433.500000	0.002393  
434.000000	0.001212  
434.500000	0.001106  
435.000000	0.001939  
435.500000	0.002742  
436.000000	0.001500  
436.500000	0.000219  
437.000000	-0.000303 
437.500000	0.000000  
438.000000	0.000000  
438.500000	0.000000  
439.000000	0.000000  
439.500000	0.000000  
440.000000	0.000000  
440.500000	0.000000  
441.000000	0.000000  
441.500000	0.000000  
442.000000	-0.000060 
442.500000	-0.000113 
443.000000	0.000356  
443.500000	0.001393  
444.000000	0.002136  
444.500000	0.001765  
445.000000	0.000689  
445.500000	-0.000106 
446.000000	-0.000356 
446.500000	0.000128  
447.000000	0.002348  
447.500000	0.004651  
448.000000	0.004946  
448.500000	0.002462  
449.000000	0.000242  
449.500000	-0.000545 
450.000000	-0.000053 
450.500000	0.000409  
451.000000	0.000984  
451.500000	0.001151  
452.000000	0.000613  
452.500000	0.000075  
453.000000	-0.000121 
453.500000	0.000000  
454.000000	0.000000  
454.500000	0.000000  
455.000000	0.000000  
455.500000	-0.000060 
456.000000	-0.000053 
456.500000	0.000409  
457.000000	0.000984  
457.500000	0.001151  
458.000000	0.000553  
458.500000	0.000022  
459.000000	0.000287  
459.500000	0.000984  
460.000000	0.001151  
460.500000	0.000613  
461.000000	0.000075  
461.500000	-0.000121 
462.000000	0.000000  
462.500000	0.000000  
463.000000	0.000000  
463.500000	0.000000  
464.000000	0.000000  
464.500000	0.000000  
465.000000	0.000000  
465.500000	0.000000  
466.000000	0.000000  
466.500000	0.000000  
467.000000	0.000000  
467.500000	0.000000  
468.000000	0.000000  
468.500000	0.000000  
469.000000	0.000000  
469.500000	0.000000  
470.000000	0.000000  
470.500000	0.000000  
471.000000	0.000000  
471.500000	0.000000  
472.000000	0.000000  
472.500000	0.000000  
473.000000	0.000000  
473.500000	0.000000  
474.000000	0.000000  
474.500000	0.000000  
475.000000	0.000000  
475.500000	0.000000  
476.000000	0.000000  
476.500000	0.000000  
477.000000	0.000000  
477.500000	0.000000  
478.000000	0.000000  
478.500000	0.000000  
479.000000	0.000000  
479.500000	0.000000  
480.000000	0.000000  
480.500000	0.000000  
481.000000	0.000000  
481.500000	0.000000  
482.000000	0.000000  
482.500000	0.000000  
483.000000	0.000000  
483.500000	0.000000  
484.000000	0.000000  
484.500000	0.000000  
485.000000	0.000000  
485.500000	0.000000  
486.000000	0.000000  
486.500000	0.000000  
487.000000	0.000000  
487.500000	0.000000  
488.000000	0.000000  
488.500000	0.000000  
489.000000	0.000000  
489.500000	0.000000  
490.000000	0.000000  
490.500000	0.000000  
491.000000	0.000000  
491.500000	0.000000  
492.000000	0.000000  
492.500000	0.000000  
493.000000	0.000000  
493.500000	0.000000  
494.000000	0.000000  
494.500000	0.000000  
495.000000	0.000000  
495.500000	0.000000  
496.000000	0.000000  
496.500000	0.000000  
497.000000	0.000000  
497.500000	0.000000  
498.000000	0.000000  
498.500000	0.000000  
499.000000	0.000000  
499.500000	0.000000  
500.000000	0.000000  
500.500000	0.000000  
501.000000	0.000000  
501.500000	0.000000  
502.000000	0.000000  
502.500000	0.000000  
503.000000	0.000000  
503.500000	0.000000  
504.000000	0.000000  
504.500000	0.000000  
505.000000	0.000000  
505.500000	0.000000  
506.000000	0.000000  
506.500000	0.000000  
507.000000	0.000000  
507.500000	0.000000  
508.000000	0.000000  
508.500000	0.000000  
509.000000	0.000000  
509.500000	0.000000  
510.000000	0.000000  
510.500000	0.000000  
511.000000	0.000000  
511.500000	0.000000  
512.000000	0.000000  
512.500000	0.000000  
513.000000	0.000000  
513.500000	0.000000  
514.000000	0.000000  
514.500000	0.000000  
515.000000	0.000000  
515.500000	0.000000  
516.000000	0.000000  
516.500000	0.000000  
517.000000	0.000000  
517.500000	0.000000  
518.000000	0.000000  
518.500000	0.000000  
519.000000	0.000000  
519.500000	0.000000  
520.000000	0.000000  
520.500000	0.000000  
521.000000	0.000000  
521.500000	0.000000  
522.000000	0.000000  
522.500000	0.000000  
523.000000	0.000000  
523.500000	0.000000  
524.000000	0.000000  
524.500000	0.000000  
525.000000	0.000000  
525.500000	0.000000  
526.000000	0.000000  
526.500000	0.000000  
527.000000	0.000000  
527.500000	0.000000  
528.000000	-0.000060 
528.500000	-0.000053 
529.000000	0.000409  
529.500000	0.000984  
530.000000	0.001151  
530.500000	0.000613  
531.000000	0.000075  
531.500000	-0.000121 
532.000000	0.000000  
532.500000	0.000000  
533.000000	0.000000  
533.500000	0.000000  
534.000000	0.000000  
534.500000	0.000000  
535.000000	0.000000  
535.500000	0.000000  
536.000000	0.000000  
536.500000	0.000000  
537.000000	0.000000  
537.500000	0.000000  
538.000000	0.000000  
538.500000	0.000000  
539.000000	0.000000  
539.500000	0.000000  
540.000000	0.000000  
540.500000	0.000000  
541.000000	0.000000  
541.500000	0.000000  
542.000000	0.000000  
542.500000	0.000000  
543.000000	0.000000  
543.500000	0.000000  
544.000000	0.000000  
544.500000	0.000000  
545.000000	0.000000  
545.500000	0.000000  
546.000000	0.000000  
546.500000	0.000000  
547.000000	0.000000  
547.500000	0.000000  
548.000000	0.000000  
548.500000	0.000000  
549.000000	0.000000  
549.500000	0.000000  
550.000000	0.000000  
550.500000	0.000000  
551.000000	0.000000  
551.500000	0.000000  
552.000000	0.000000  
552.500000	0.000000  
553.000000	0.000000  
553.500000	0.000000  
554.000000	0.000000  
554.500000	0.000000  
555.000000	0.000000  
555.500000	0.000000  
556.000000	0.000000  
556.500000	0.000000  
557.000000	0.000000  
557.500000	0.000000  
558.000000	0.000000  
558.500000	0.000000  
559.000000	0.000000  
559.500000	0.000000  
560.000000	0.000000  
560.500000	0.000000  
561.000000	0.000000  
561.500000	0.000000  
562.000000	0.000000  
562.500000	0.000000  
563.000000	0.000000  
563.500000	0.000000  
564.000000	0.000000  
564.500000	0.000000  
565.000000	0.000000  
565.500000	0.000000  
566.000000	0.000000  
566.500000	0.000000  
567.000000	0.000000  
567.500000	0.000000  
568.000000	0.000000  
568.500000	0.000000  
569.000000	0.000000  
569.500000	-0.000060 
570.000000	-0.000053 
570.500000	0.000409  
571.000000	0.000984  
571.500000	0.001151  
572.000000	0.000613  
572.500000	0.000075  
573.000000	-0.000121 
573.500000	0.000000  
574.000000	0.000000  
574.500000	0.000000  
575.000000	-0.000060 
575.500000	-0.000053 
576.000000	0.000409  
576.500000	0.000984  
577.000000	0.001151  
577.500000	0.000613  
578.000000	0.000075  
578.500000	-0.000121 
579.000000	0.000000  
579.500000	0.000000  
580.000000	-0.000060 
580.500000	-0.000053 
581.000000	0.000348  
581.500000	0.000931  
582.000000	0.001560  
582.500000	0.001598  
583.000000	0.001227  
583.500000	0.000492  
584.000000	0.000075  
584.500000	-0.000121 
585.000000	-0.000060 
585.500000	-0.000113 
586.000000	0.000113  
586.500000	0.000939  
587.000000	0.003863  
587.500000	0.006515  
588.000000	0.006962  
588.500000	0.007060  
589.000000	0.008803  
589.500000	0.018621  
590.000000	0.033416  
590.500000	0.061810  
591.000000	0.101234  
591.500000	0.162287  
592.000000	0.249969  
592.500000	0.356636  
593.000000	0.465469  
593.500000	0.586257  
594.000000	0.746356  
594.500000	0.952318  
595.000000	1.189818  
595.500000	1.443621  
596.000000	1.733007  
596.500000	2.054439  
597.000000	2.407803  
597.500000	2.794484  
598.000000	3.228500  
598.500000	3.656189  
599.000000	4.067696  
599.500000	4.447333  
600.000000	4.822719  
600.500000	5.156212  
601.000000	5.480030  
601.500000	5.818257  
602.000000	6.214462  
602.500000	6.545515  
603.000000	6.733295  
603.500000	6.819749  
604.000000	6.926166  
604.500000	7.102590  
605.000000	7.265992  
605.500000	7.362090  
606.000000	7.384310  
606.500000	7.388969  
607.000000	7.345818  
607.500000	7.288030  
608.000000	7.194803  
608.500000	7.072780  
609.000000	6.861356  
609.500000	6.524916  
610.000000	6.058166  
610.500000	5.535340  
611.000000	4.965249  
611.500000	4.376189  
612.000000	3.737242  
612.500000	3.120666  
613.000000	2.557333  
613.500000	2.098462  
614.000000	1.676492  
614.500000	1.315977  
615.000000	0.997060  
615.500000	0.776045  
616.000000	0.619030  
616.500000	0.521431  
617.000000	0.443704  
617.500000	0.394901  
618.000000	0.352696  
618.500000	0.327333  
619.000000	0.304848  
619.500000	0.294537  
620.000000	0.292560  
620.500000	0.293045  
621.000000	0.283416  
621.500000	0.271545  
622.000000	0.257568  
622.500000	0.247265  
623.000000	0.246234  
623.500000	0.261212  
624.000000	0.271015  
624.500000	0.261840  
625.000000	0.241886  
625.500000	0.239916  
626.000000	0.251553  
626.500000	0.252969  
627.000000	0.234765  
627.500000	0.211537  
628.000000	0.201833  
628.500000	0.205196  
629.000000	0.216469  
629.500000	0.219333  
630.000000	0.217833  
630.500000	0.217757  
631.000000	0.223053  
631.500000	0.215977  
632.000000	0.200575  
632.500000	0.184825  
633.000000	0.185068  
633.500000	0.187560  
634.000000	0.192371  
634.500000	0.197030  
635.000000	0.202954  
635.500000	0.197636  
636.000000	0.181454  
636.500000	0.161939  
637.000000	0.149757  
637.500000	0.147780  
638.000000	0.152212  
638.500000	0.161121  
639.000000	0.169856  
639.500000	0.172893  
640.000000	0.170984  
640.500000	0.166856  
641.000000	0.161689  
641.500000	0.147393  
642.000000	0.133143  
642.500000	0.124962  
643.000000	0.129659  
643.500000	0.135530  
644.000000	0.136272  
644.500000	0.122469  
645.000000	0.106181  
645.500000	0.096848  
646.000000	0.104166  
646.500000	0.113856  
647.000000	0.123257  
647.500000	0.122568  
648.000000	0.116871  
648.500000	0.107356  
649.000000	0.109075  
649.500000	0.113871  
650.000000	0.112439  
650.500000	0.096530  
651.000000	0.080098  
651.500000	0.072303  
652.000000	0.078575  
652.500000	0.092075  
653.000000	0.097833  
653.500000	0.085303  
654.000000	0.066666  
654.500000	0.058787  
655.000000	0.065878  
655.500000	0.075568  
656.000000	0.075121  
656.500000	0.068553  
657.000000	0.065696  
657.500000	0.067477  
658.000000	0.064863  
658.500000	0.056424  
659.000000	0.050280  
659.500000	0.050371  
660.000000	0.052515  
660.500000	0.051484  
661.000000	0.051840  
661.500000	0.051893  
662.000000	0.049628  
662.500000	0.043553  
663.000000	0.037909  
663.500000	0.034848  
664.000000	0.034098  
664.500000	0.032553  
665.000000	0.029280  
665.500000	0.028348  
666.000000	0.027856  
666.500000	0.028272  
667.000000	0.026939  
667.500000	0.026583  
668.000000	0.026348  
668.500000	0.026462  
669.000000	0.023378  
669.500000	0.021136  
670.000000	0.020007  
670.500000	0.021621  
671.000000	0.021484  
671.500000	0.018348  
672.000000	0.014386  
672.500000	0.015931  
673.000000	0.018022  
673.500000	0.018234  
674.000000	0.016492  
674.500000	0.018030  
675.000000	0.020530  
675.500000	0.020416  
676.000000	0.014772  
676.500000	0.010863  
677.000000	0.010113  
677.500000	0.011992  
678.000000	0.013522  
678.500000	0.013659  
679.000000	0.011969  
679.500000	0.010969  
680.000000	0.011825  
680.500000	0.011446  
681.000000	0.008348  
681.500000	0.004727  
682.000000	0.003477  
682.500000	0.003962  
683.000000	0.003659  
683.500000	0.002272  
684.000000	0.001992  
684.500000	0.002992  
685.000000	0.004166  
685.500000	0.005969  
686.000000	0.007901  
686.500000	0.007674  
687.000000	0.005469  
687.500000	0.003431  
688.000000	0.003128  
688.500000	0.003053  
689.000000	0.001575  
689.500000	0.000098  
690.000000	-0.000303 
690.500000	0.000000  
691.000000	0.000000  
691.500000	0.000000  
692.000000	0.000000  
692.500000	-0.000060 
693.000000	-0.000113 
693.500000	0.000356  
694.000000	0.001393  
694.500000	0.002136  
695.000000	0.001765  
695.500000	0.000689  
696.000000	-0.000045 
696.500000	-0.000121 
697.000000	0.000000  
697.500000	0.000000  
698.000000	0.000000  
698.500000	0.000000  
699.000000	0.000000  
699.500000	0.000000  
700.000000	0.000000  

