PE FL                   SPECTRUM    ASCII       PEDS        1.60        
  -1
01#124.SP
02/03/17
01:08:23.00
02/03/17
01:12:08.00


400.000000
1









LS55
420.00
5.00
5.00
SCAN
1
20
100
100
0
50
0
0
0
1
7
ON
420 400 
1 0 0
#HDR
-1
-1
#GR
NM

0.00002384185791015625
0.0
220.000000
0.500000
361
8
0.096439
-0.000181
#DATA
220.000000	0.000000  
220.500000	0.000000  
221.000000	0.000000  
221.500000	0.000000  
222.000000	0.000000  
222.500000	0.000000  
223.000000	0.000000  
223.500000	0.000000  
224.000000	0.000000  
224.500000	0.000000  
225.000000	0.000000  
225.500000	0.000000  
226.000000	0.000000  
226.500000	0.000000  
227.000000	0.000000  
227.500000	0.000000  
228.000000	0.000000  
228.500000	0.000000  
229.000000	0.000000  
229.500000	0.000000  
230.000000	0.000000  
230.500000	0.000000  
231.000000	0.000000  
231.500000	0.000000  
232.000000	0.000000  
232.500000	0.000000  
233.000000	0.000000  
233.500000	0.000000  
234.000000	0.000000  
234.500000	0.000000  
235.000000	0.000000  
235.500000	0.000000  
236.000000	0.000000  
236.500000	0.000000  
237.000000	0.000000  
237.500000	0.000000  
238.000000	0.000000  
238.500000	0.000000  
239.000000	0.000000  
239.500000	0.000000  
240.000000	0.000000  
240.500000	0.000000  
241.000000	0.000000  
241.500000	0.000000  
242.000000	0.000000  
242.500000	0.000000  
243.000000	0.000000  
243.500000	0.000000  
244.000000	0.000000  
244.500000	0.000000  
245.000000	0.000000  
245.500000	0.000000  
246.000000	0.000000  
246.500000	0.000000  
247.000000	0.000000  
247.500000	0.000000  
248.000000	0.000000  
248.500000	0.000000  
249.000000	0.000000  
249.500000	0.000000  
250.000000	0.000000  
250.500000	0.000000  
251.000000	0.000000  
251.500000	0.000000  
252.000000	0.000000  
252.500000	0.000000  
253.000000	0.000000  
253.500000	0.000000  
254.000000	0.000000  
254.500000	0.000000  
255.000000	0.000000  
255.500000	0.000000  
256.000000	0.000000  
256.500000	0.000000  
257.000000	0.000000  
257.500000	0.000000  
258.000000	0.000000  
258.500000	0.000000  
259.000000	0.000000  
259.500000	0.000000  
260.000000	0.000000  
260.500000	0.000000  
261.000000	0.000000  
261.500000	0.000000  
262.000000	0.000000  
262.500000	0.000000  
263.000000	0.000000  
263.500000	0.000000  
264.000000	0.000000  
264.500000	0.000000  
265.000000	0.000000  
265.500000	0.000000  
266.000000	0.000000  
266.500000	0.000000  
267.000000	0.000000  
267.500000	0.000000  
268.000000	0.000000  
268.500000	0.000000  
269.000000	0.000000  
269.500000	0.000000  
270.000000	0.000000  
270.500000	0.000000  
271.000000	0.000000  
271.500000	0.000000  
272.000000	0.000000  
272.500000	0.000000  
273.000000	0.000000  
273.500000	0.000000  
274.000000	0.000000  
274.500000	0.000000  
275.000000	0.000000  
275.500000	0.000000  
276.000000	0.000000  
276.500000	0.000000  
277.000000	0.000000  
277.500000	0.000000  
278.000000	0.000000  
278.500000	0.000000  
279.000000	0.000000  
279.500000	0.000000  
280.000000	0.000000  
280.500000	0.000000  
281.000000	0.000000  
281.500000	0.000000  
282.000000	0.000000  
282.500000	0.000000  
283.000000	0.000000  
283.500000	-0.000060 
284.000000	-0.000113 
284.500000	0.000477  
285.000000	0.001257  
285.500000	0.001590  
286.000000	0.000886  
286.500000	0.000143  
287.000000	-0.000181 
287.500000	0.000000  
288.000000	0.000000  
288.500000	0.000000  
289.000000	0.000000  
289.500000	0.000000  
290.000000	0.000000  
290.500000	0.000000  
291.000000	0.000000  
291.500000	0.000000  
292.000000	0.000000  
292.500000	0.000000  
293.000000	0.000000  
293.500000	0.000000  
294.000000	0.000000  
294.500000	0.000000  
295.000000	-0.000060 
295.500000	-0.000053 
296.000000	0.000409  
296.500000	0.000984  
297.000000	0.001151  
297.500000	0.000553  
298.000000	0.000022  
298.500000	0.000287  
299.000000	0.000863  
299.500000	0.000863  
300.000000	0.001151  
300.500000	0.002863  
301.000000	0.006113  
301.500000	0.007916  
302.000000	0.007045  
302.500000	0.005454  
303.000000	0.005507  
303.500000	0.006984  
304.000000	0.011424  
304.500000	0.016325  
305.000000	0.019287  
305.500000	0.020750  
306.000000	0.022969  
306.500000	0.027492  
307.000000	0.029219  
307.500000	0.025378  
308.000000	0.021636  
308.500000	0.022189  
309.000000	0.023507  
309.500000	0.020863  
310.000000	0.017083  
310.500000	0.016378  
311.000000	0.020090  
311.500000	0.022659  
312.000000	0.023886  
312.500000	0.023553  
313.000000	0.021219  
313.500000	0.019143  
314.000000	0.017727  
314.500000	0.016931  
315.000000	0.015007  
315.500000	0.015075  
316.000000	0.018075  
316.500000	0.021500  
317.000000	0.020363  
317.500000	0.016848  
318.000000	0.014121  
318.500000	0.013265  
319.000000	0.013628  
319.500000	0.014643  
320.000000	0.013969  
320.500000	0.010325  
321.000000	0.005863  
321.500000	0.005712  
322.000000	0.008522  
322.500000	0.009674  
323.000000	0.007416  
323.500000	0.007189  
324.000000	0.008871  
324.500000	0.009825  
325.000000	0.007090  
325.500000	0.003401  
326.000000	0.001143  
326.500000	0.003219  
327.000000	0.005848  
327.500000	0.007393  
328.000000	0.006590  
328.500000	0.006363  
329.000000	0.006568  
329.500000	0.006325  
330.000000	0.004863  
330.500000	0.005560  
331.000000	0.007916  
331.500000	0.009303  
332.000000	0.009378  
332.500000	0.010318  
333.000000	0.011848  
333.500000	0.012477  
334.000000	0.010863  
334.500000	0.009060  
335.000000	0.008431  
335.500000	0.010098  
336.000000	0.011636  
336.500000	0.011318  
337.000000	0.008189  
337.500000	0.006424  
338.000000	0.009159  
338.500000	0.013340  
339.000000	0.015954  
339.500000	0.014787  
340.000000	0.012734  
340.500000	0.009613  
341.000000	0.010128  
341.500000	0.012734  
342.000000	0.016651  
342.500000	0.017469  
343.000000	0.016750  
343.500000	0.015401  
344.000000	0.014000  
344.500000	0.013863  
345.000000	0.014598  
345.500000	0.016189  
346.000000	0.016287  
346.500000	0.016560  
347.000000	0.016765  
347.500000	0.016848  
348.000000	0.015424  
348.500000	0.014681  
349.000000	0.015939  
349.500000	0.020121  
350.000000	0.022113  
350.500000	0.021674  
351.000000	0.020598  
351.500000	0.023962  
352.000000	0.027606  
352.500000	0.028477  
353.000000	0.024416  
353.500000	0.020015  
354.000000	0.017628  
354.500000	0.017856  
355.000000	0.020636  
355.500000	0.023484  
356.000000	0.024719  
356.500000	0.023977  
357.000000	0.024954  
357.500000	0.026007  
358.000000	0.028515  
358.500000	0.027750  
359.000000	0.026939  
359.500000	0.027234  
360.000000	0.031174  
360.500000	0.033553  
361.000000	0.035196  
361.500000	0.034431  
362.000000	0.036393  
362.500000	0.035886  
363.000000	0.034280  
363.500000	0.031287  
364.000000	0.031386  
364.500000	0.031659  
365.000000	0.032962  
365.500000	0.031651  
366.000000	0.030719  
366.500000	0.030946  
367.000000	0.033037  
367.500000	0.034545  
368.000000	0.032378  
368.500000	0.029825  
369.000000	0.031280  
369.500000	0.034507  
370.000000	0.036992  
370.500000	0.037340  
371.000000	0.037992  
371.500000	0.039946  
372.000000	0.041575  
372.500000	0.040068  
373.000000	0.039666  
373.500000	0.038227  
374.000000	0.036909  
374.500000	0.034689  
375.000000	0.036189  
375.500000	0.039878  
376.000000	0.040977  
376.500000	0.035916  
377.000000	0.029424  
377.500000	0.028136  
378.000000	0.032136  
378.500000	0.037068  
379.000000	0.039121  
379.500000	0.038325  
380.000000	0.037446  
380.500000	0.036537  
381.000000	0.036734  
381.500000	0.036727  
382.000000	0.038462  
382.500000	0.042022  
383.000000	0.047083  
383.500000	0.049878  
384.000000	0.049840  
384.500000	0.048053  
385.000000	0.047901  
385.500000	0.050242  
386.000000	0.055886  
386.500000	0.060446  
387.000000	0.061446  
387.500000	0.058583  
388.000000	0.057053  
388.500000	0.057878  
389.000000	0.061454  
389.500000	0.063500  
390.000000	0.062537  
390.500000	0.058439  
391.000000	0.054772  
391.500000	0.054537  
392.000000	0.057886  
392.500000	0.064606  
393.000000	0.073106  
393.500000	0.080143  
394.000000	0.080515  
394.500000	0.074106  
395.000000	0.069303  
395.500000	0.070621  
396.000000	0.076340  
396.500000	0.080318  
397.000000	0.082674  
397.500000	0.084765  
398.000000	0.086204  
398.500000	0.091621  
399.000000	0.096439  
399.500000	0.089659  
400.000000	0.065000  

