PE FL                   SPECTRUM    ASCII       PEDS        1.60        
  -1
01#128.SP
02/03/17
01:28:37.00
02/03/17
01:31:19.00


580.000000
1









LS55
300.00
5.00
5.00
SCAN
1
20
100
100
0
100
0
1
0
1
7
ON
438 300 
1 0 0
#HDR
-1
-1
#GR
NM

0.00002384185791015625
0.0
320.000000
0.500000
521
8
0.478454
0.010265
#DATA
320.000000	0.178000 
320.500000	0.217772 
321.000000	0.231757 
321.500000	0.227924 
322.000000	0.223878 
322.500000	0.229287 
323.000000	0.230181 
323.500000	0.220863 
324.000000	0.209462 
324.500000	0.209931 
325.000000	0.218075 
325.500000	0.223916 
326.000000	0.226159 
326.500000	0.225401 
327.000000	0.223136 
327.500000	0.218651 
328.000000	0.212954 
328.500000	0.213121 
329.000000	0.216795 
329.500000	0.221810 
330.000000	0.223871 
330.500000	0.224287 
331.000000	0.221204 
331.500000	0.215780 
332.000000	0.210378 
332.500000	0.208924 
333.000000	0.213537 
333.500000	0.219075 
334.000000	0.218954 
334.500000	0.210477 
335.000000	0.202583 
335.500000	0.195583 
336.000000	0.187113 
336.500000	0.178856 
337.000000	0.183196 
337.500000	0.196598 
338.000000	0.208234 
338.500000	0.199378 
339.000000	0.184416 
339.500000	0.172181 
340.000000	0.169712 
340.500000	0.168772 
341.000000	0.171848 
341.500000	0.174924 
342.000000	0.176939 
342.500000	0.174265 
343.000000	0.168719 
343.500000	0.165265 
344.000000	0.162083 
344.500000	0.160954 
345.000000	0.160363 
345.500000	0.159848 
346.000000	0.153522 
346.500000	0.148075 
347.000000	0.145575 
347.500000	0.147439 
348.000000	0.147371 
348.500000	0.147363 
349.000000	0.143568 
349.500000	0.140696 
350.000000	0.135848 
350.500000	0.135886 
351.000000	0.138401 
351.500000	0.144121 
352.000000	0.150575 
352.500000	0.150598 
353.000000	0.139560 
353.500000	0.119371 
354.000000	0.104181 
354.500000	0.100636 
355.000000	0.108598 
355.500000	0.118507 
356.000000	0.124295 
356.500000	0.124378 
357.000000	0.123015 
357.500000	0.124742 
358.000000	0.126015 
358.500000	0.125545 
359.000000	0.124886 
359.500000	0.122886 
360.000000	0.119628 
360.500000	0.111727 
361.000000	0.109053 
361.500000	0.108484 
362.000000	0.113401 
362.500000	0.112469 
363.000000	0.108742 
363.500000	0.101204 
364.000000	0.104393 
364.500000	0.110560 
365.000000	0.112098 
365.500000	0.104416 
366.000000	0.099045 
366.500000	0.102598 
367.000000	0.109803 
367.500000	0.118136 
368.000000	0.119106 
368.500000	0.116962 
369.000000	0.114250 
369.500000	0.119500 
370.000000	0.122545 
370.500000	0.124772 
371.000000	0.125257 
371.500000	0.127280 
372.000000	0.120954 
372.500000	0.116530 
373.000000	0.120750 
373.500000	0.136780 
374.000000	0.145613 
374.500000	0.144772 
375.000000	0.138772 
375.500000	0.138053 
376.000000	0.141181 
376.500000	0.141166 
377.000000	0.135409 
377.500000	0.131825 
378.000000	0.137840 
378.500000	0.144734 
379.000000	0.145454 
379.500000	0.141318 
380.000000	0.144416 
380.500000	0.158636 
381.000000	0.172628 
381.500000	0.184916 
382.000000	0.196340 
382.500000	0.207886 
383.000000	0.212977 
383.500000	0.208090 
384.000000	0.194174 
384.500000	0.184795 
385.000000	0.191515 
385.500000	0.208075 
386.000000	0.221310 
386.500000	0.224537 
387.000000	0.225977 
387.500000	0.227696 
388.000000	0.226621 
388.500000	0.224856 
389.000000	0.229712 
389.500000	0.246348 
390.000000	0.263871 
390.500000	0.273613 
391.000000	0.266712 
391.500000	0.252272 
392.000000	0.237810 
392.500000	0.232651 
393.000000	0.242977 
393.500000	0.265522 
394.000000	0.280916 
394.500000	0.274075 
395.000000	0.264030 
395.500000	0.267166 
396.000000	0.283575 
396.500000	0.291848 
397.000000	0.290886 
397.500000	0.286325 
398.000000	0.290022 
398.500000	0.305795 
399.000000	0.326000 
399.500000	0.340363 
400.000000	0.343477 
400.500000	0.337621 
401.000000	0.333106 
401.500000	0.329886 
402.000000	0.331742 
402.500000	0.332522 
403.000000	0.329954 
403.500000	0.328946 
404.000000	0.343500 
404.500000	0.363507 
405.000000	0.371621 
405.500000	0.366787 
406.000000	0.358333 
406.500000	0.362742 
407.000000	0.371643 
407.500000	0.376833 
408.000000	0.382053 
408.500000	0.386424 
409.000000	0.400015 
409.500000	0.411015 
410.000000	0.415681 
410.500000	0.405613 
411.000000	0.405189 
411.500000	0.411227 
412.000000	0.420833 
412.500000	0.425393 
413.000000	0.430734 
413.500000	0.437159 
414.000000	0.436871 
414.500000	0.432469 
415.000000	0.427348 
415.500000	0.429424 
416.000000	0.430787 
416.500000	0.432848 
417.000000	0.432606 
417.500000	0.433181 
418.000000	0.439477 
418.500000	0.447037 
419.000000	0.452590 
419.500000	0.455121 
420.000000	0.466356 
420.500000	0.475537 
421.000000	0.473992 
421.500000	0.456810 
422.000000	0.441750 
422.500000	0.436553 
423.000000	0.444113 
423.500000	0.458507 
424.000000	0.472992 
424.500000	0.478454 
425.000000	0.475174 
425.500000	0.465568 
426.000000	0.459924 
426.500000	0.455007 
427.000000	0.457954 
427.500000	0.462712 
428.000000	0.467734 
428.500000	0.463560 
429.000000	0.454265 
429.500000	0.444363 
430.000000	0.440621 
430.500000	0.440712 
431.000000	0.439484 
431.500000	0.442871 
432.000000	0.449484 
432.500000	0.455803 
433.000000	0.449901 
433.500000	0.440022 
434.000000	0.432522 
434.500000	0.433272 
435.000000	0.435068 
435.500000	0.439174 
436.000000	0.450651 
436.500000	0.460234 
437.000000	0.455886 
437.500000	0.441393 
438.000000	0.433083 
438.500000	0.428295 
439.000000	0.421280 
439.500000	0.407803 
440.000000	0.404666 
440.500000	0.414121 
441.000000	0.427234 
441.500000	0.421098 
442.000000	0.402295 
442.500000	0.388295 
443.000000	0.400401 
443.500000	0.418227 
444.000000	0.419871 
444.500000	0.409181 
445.000000	0.401742 
445.500000	0.400643 
446.000000	0.390507 
446.500000	0.373234 
447.000000	0.364030 
447.500000	0.370090 
448.000000	0.378522 
448.500000	0.376075 
449.000000	0.372424 
449.500000	0.366878 
450.000000	0.365242 
450.500000	0.369303 
451.000000	0.380363 
451.500000	0.388636 
452.000000	0.379598 
452.500000	0.365325 
453.000000	0.348871 
453.500000	0.340568 
454.000000	0.325886 
454.500000	0.317136 
455.000000	0.308954 
455.500000	0.311530 
456.000000	0.309219 
456.500000	0.305765 
457.000000	0.298378 
457.500000	0.297878 
458.000000	0.295272 
458.500000	0.291924 
459.000000	0.287681 
459.500000	0.290121 
460.000000	0.298598 
460.500000	0.301409 
461.000000	0.291621 
461.500000	0.278083 
462.000000	0.269295 
462.500000	0.270189 
463.000000	0.269757 
463.500000	0.266242 
464.000000	0.255227 
464.500000	0.248560 
465.000000	0.243590 
465.500000	0.242272 
466.000000	0.234575 
466.500000	0.222787 
467.000000	0.220666 
467.500000	0.229265 
468.000000	0.242969 
468.500000	0.247189 
469.000000	0.241795 
469.500000	0.234636 
470.000000	0.233530 
470.500000	0.231075 
471.000000	0.224393 
471.500000	0.216833 
472.000000	0.214030 
472.500000	0.213704 
473.000000	0.213909 
473.500000	0.211651 
474.000000	0.209219 
474.500000	0.203924 
475.000000	0.200742 
475.500000	0.197515 
476.000000	0.199696 
476.500000	0.203439 
477.000000	0.208984 
477.500000	0.210439 
478.000000	0.209204 
478.500000	0.203795 
479.000000	0.201803 
479.500000	0.199060 
480.000000	0.199287 
480.500000	0.196234 
481.000000	0.194143 
481.500000	0.199250 
482.000000	0.211083 
482.500000	0.218856 
483.000000	0.212212 
483.500000	0.195803 
484.000000	0.186060 
484.500000	0.189727 
485.000000	0.197560 
485.500000	0.201356 
486.000000	0.201378 
486.500000	0.192939 
487.000000	0.185939 
487.500000	0.183181 
488.000000	0.188128 
488.500000	0.186098 
489.000000	0.178295 
489.500000	0.170469 
490.000000	0.169083 
490.500000	0.167022 
491.000000	0.166643 
491.500000	0.164992 
492.000000	0.164007 
492.500000	0.158015 
493.000000	0.153462 
493.500000	0.152515 
494.000000	0.155734 
494.500000	0.159984 
495.000000	0.161143 
495.500000	0.152393 
496.000000	0.132431 
496.500000	0.117893 
497.000000	0.116545 
497.500000	0.129598 
498.000000	0.138037 
498.500000	0.143022 
499.000000	0.136757 
499.500000	0.126007 
500.000000	0.111931 
500.500000	0.108886 
501.000000	0.109909 
501.500000	0.107333 
502.000000	0.102333 
502.500000	0.102621 
503.000000	0.111053 
503.500000	0.117409 
504.000000	0.122242 
504.500000	0.121787 
505.000000	0.116734 
505.500000	0.108780 
506.000000	0.100371 
506.500000	0.093098 
507.000000	0.089257 
507.500000	0.091128 
508.000000	0.097310 
508.500000	0.098401 
509.000000	0.094765 
509.500000	0.089734 
510.000000	0.092469 
510.500000	0.096568 
511.000000	0.098916 
511.500000	0.097166 
512.000000	0.092916 
512.500000	0.090545 
513.000000	0.084696 
513.500000	0.079136 
514.000000	0.072704 
514.500000	0.074659 
515.000000	0.081530 
515.500000	0.087219 
516.000000	0.082575 
516.500000	0.073386 
517.000000	0.070750 
517.500000	0.077681 
518.000000	0.087378 
518.500000	0.089984 
519.000000	0.083409 
519.500000	0.075553 
520.000000	0.069515 
520.500000	0.066303 
521.000000	0.062272 
521.500000	0.059250 
522.000000	0.054863 
522.500000	0.053969 
523.000000	0.058719 
523.500000	0.068378 
524.000000	0.068825 
524.500000	0.061787 
525.000000	0.057492 
525.500000	0.065530 
526.000000	0.066553 
526.500000	0.063166 
527.000000	0.056719 
527.500000	0.061424 
528.000000	0.071613 
528.500000	0.084992 
529.000000	0.086757 
529.500000	0.080856 
530.000000	0.069401 
530.500000	0.064295 
531.000000	0.064356 
531.500000	0.065431 
532.000000	0.061348 
532.500000	0.052984 
533.000000	0.044166 
533.500000	0.043204 
534.000000	0.049106 
534.500000	0.057265 
535.000000	0.062121 
535.500000	0.066848 
536.000000	0.067901 
536.500000	0.069810 
537.000000	0.064704 
537.500000	0.058636 
538.000000	0.051431 
538.500000	0.047333 
539.000000	0.041045 
539.500000	0.037484 
540.000000	0.038954 
540.500000	0.043848 
541.000000	0.049409 
541.500000	0.048856 
542.000000	0.045060 
542.500000	0.039560 
543.000000	0.041310 
543.500000	0.046954 
544.000000	0.050545 
544.500000	0.049621 
545.000000	0.045348 
545.500000	0.042022 
546.000000	0.042916 
546.500000	0.049401 
547.000000	0.053181 
547.500000	0.051477 
548.000000	0.043280 
548.500000	0.036303 
549.000000	0.031530 
549.500000	0.027833 
550.000000	0.026856 
550.500000	0.026901 
551.000000	0.028303 
551.500000	0.029037 
552.000000	0.027787 
552.500000	0.023689 
553.000000	0.022848 
553.500000	0.023674 
554.000000	0.025416 
554.500000	0.022666 
555.000000	0.021916 
555.500000	0.023371 
556.000000	0.026454 
556.500000	0.024181 
557.000000	0.020560 
557.500000	0.018613 
558.000000	0.022954 
558.500000	0.027992 
559.000000	0.029954 
559.500000	0.027515 
560.000000	0.023780 
560.500000	0.022621 
561.000000	0.025984 
561.500000	0.029500 
562.000000	0.030204 
562.500000	0.028166 
563.000000	0.024212 
563.500000	0.021234 
564.000000	0.018250 
564.500000	0.018628 
565.000000	0.021977 
565.500000	0.028068 
566.000000	0.031318 
566.500000	0.033537 
567.000000	0.032795 
567.500000	0.027636 
568.000000	0.018590 
568.500000	0.010772 
569.000000	0.010265 
569.500000	0.015128 
570.000000	0.020636 
570.500000	0.022212 
571.000000	0.024287 
571.500000	0.024969 
572.000000	0.025204 
572.500000	0.021583 
573.000000	0.017606 
573.500000	0.016651 
574.000000	0.020553 
574.500000	0.026371 
575.000000	0.029287 
575.500000	0.028446 
576.000000	0.023318 
576.500000	0.020348 
577.000000	0.020106 
577.500000	0.024075 
578.000000	0.028325 
578.500000	0.028810 
579.000000	0.025219 
579.500000	0.022348 
580.000000	0.023000 

