PE FL                   SPECTRUM    ASCII       PEDS        1.60        
  -1
01#126.SP
02/03/17
01:18:20.00
02/03/17
01:23:44.00


580.000000
1









LS55
300.00
5.00
5.00
SCAN
1
20
100
100
0
50
0
1
0
1
7
ON
580 320 
1 0 0
#HDR
-1
-1
#GR
NM

0.00002384185791015625
0.0
320.000000
0.500000
521
8
0.103666
-0.000303
#DATA
320.000000	0.059000  
320.500000	0.092022  
321.000000	0.103666  
321.500000	0.095136  
322.000000	0.085984  
322.500000	0.082840  
323.000000	0.082606  
323.500000	0.082780  
324.000000	0.082159  
324.500000	0.079833  
325.000000	0.077666  
325.500000	0.073560  
326.000000	0.069265  
326.500000	0.064098  
327.000000	0.062295  
327.500000	0.064234  
328.000000	0.069363  
328.500000	0.066681  
329.000000	0.059303  
329.500000	0.049810  
330.000000	0.047363  
330.500000	0.043886  
331.000000	0.041409  
331.500000	0.040727  
332.000000	0.043666  
332.500000	0.043151  
333.000000	0.038795  
333.500000	0.036363  
334.000000	0.038643  
334.500000	0.040780  
335.000000	0.039530  
335.500000	0.033621  
336.000000	0.025348  
336.500000	0.018310  
337.000000	0.019772  
337.500000	0.024946  
338.000000	0.028507  
338.500000	0.024856  
339.000000	0.020015  
339.500000	0.016045  
340.000000	0.015492  
340.500000	0.016098  
341.000000	0.016939  
341.500000	0.014712  
342.000000	0.010568  
342.500000	0.008409  
343.000000	0.008833  
343.500000	0.009431  
344.000000	0.008083  
344.500000	0.005795  
345.000000	0.003780  
345.500000	0.003818  
346.000000	0.005727  
346.500000	0.008015  
347.000000	0.008886  
347.500000	0.007909  
348.000000	0.007250  
348.500000	0.006803  
349.000000	0.006431  
349.500000	0.006325  
350.000000	0.006772  
350.500000	0.007363  
351.000000	0.006174  
351.500000	0.004696  
352.000000	0.003583  
352.500000	0.003257  
353.000000	0.002340  
353.500000	0.001378  
354.000000	0.001818  
354.500000	0.003749  
355.000000	0.005492  
355.500000	0.004878  
356.000000	0.003462  
356.500000	0.002287  
357.000000	0.002128  
357.500000	0.001553  
358.000000	0.001045  
358.500000	0.000378  
359.000000	0.000431  
359.500000	0.001212  
360.000000	0.002083  
360.500000	0.002113  
361.000000	0.001560  
361.500000	0.001462  
362.000000	0.001825  
362.500000	0.002159  
363.000000	0.002053  
363.500000	0.001674  
364.000000	0.001106  
364.500000	0.000492  
365.000000	0.000075  
365.500000	-0.000121 
366.000000	0.000000  
366.500000	0.000000  
367.000000	0.000000  
367.500000	0.000000  
368.000000	0.000000  
368.500000	0.000000  
369.000000	0.000000  
369.500000	0.000000  
370.000000	0.000000  
370.500000	0.000000  
371.000000	0.000000  
371.500000	0.000000  
372.000000	0.000000  
372.500000	0.000000  
373.000000	0.000000  
373.500000	0.000000  
374.000000	0.000000  
374.500000	0.000000  
375.000000	0.000000  
375.500000	0.000000  
376.000000	0.000000  
376.500000	0.000000  
377.000000	0.000000  
377.500000	0.000000  
378.000000	0.000000  
378.500000	0.000000  
379.000000	0.000000  
379.500000	0.000000  
380.000000	0.000000  
380.500000	0.000000  
381.000000	0.000000  
381.500000	0.000000  
382.000000	0.000000  
382.500000	0.000000  
383.000000	0.000000  
383.500000	0.000000  
384.000000	0.000000  
384.500000	0.000000  
385.000000	0.000000  
385.500000	0.000000  
386.000000	0.000000  
386.500000	0.000000  
387.000000	0.000000  
387.500000	0.000000  
388.000000	0.000000  
388.500000	0.000000  
389.000000	0.000000  
389.500000	-0.000060 
390.000000	-0.000053 
390.500000	0.000409  
391.000000	0.000984  
391.500000	0.001090  
392.000000	0.000560  
392.500000	0.000484  
393.000000	0.000863  
393.500000	0.001030  
394.000000	0.000446  
394.500000	0.000962  
395.000000	0.002121  
395.500000	0.002742  
396.000000	0.001439  
396.500000	0.000166  
397.000000	0.000045  
397.500000	0.000931  
398.000000	0.001560  
398.500000	0.001598  
399.000000	0.001106  
399.500000	0.000325  
400.000000	0.000962  
400.500000	0.002060  
401.000000	0.002689  
401.500000	0.001909  
402.000000	0.001204  
402.500000	0.000787  
403.000000	0.000499  
403.500000	0.000431  
404.000000	0.001212  
404.500000	0.002022  
405.000000	0.002060  
405.500000	0.001909  
406.000000	0.002333  
406.500000	0.003515  
407.000000	0.004083  
407.500000	0.003310  
408.000000	0.001333  
408.500000	-0.000128 
409.000000	0.000469  
409.500000	0.002537  
410.000000	0.004022  
410.500000	0.003931  
411.000000	0.003325  
411.500000	0.002871  
412.000000	0.002590  
412.500000	0.002075  
413.000000	0.001901  
413.500000	0.001977  
414.000000	0.002000  
414.500000	0.002083  
415.000000	0.002030  
415.500000	0.001530  
416.000000	0.000984  
416.500000	0.001295  
417.000000	0.002363  
417.500000	0.002696  
418.000000	0.002250  
418.500000	0.001553  
419.000000	0.001106  
419.500000	0.000492  
420.000000	0.000075  
420.500000	-0.000121 
421.000000	0.000000  
421.500000	0.000000  
422.000000	-0.000060 
422.500000	-0.000113 
423.000000	0.000356  
423.500000	0.001393  
424.000000	0.002136  
424.500000	0.001765  
425.000000	0.000689  
425.500000	-0.000045 
426.000000	-0.000121 
426.500000	-0.000121 
427.000000	-0.000227 
427.500000	0.000772  
428.000000	0.002598  
428.500000	0.004075  
429.000000	0.003583  
429.500000	0.002393  
430.000000	0.001371  
430.500000	0.001106  
431.000000	0.000492  
431.500000	0.000015  
432.000000	-0.000174 
432.500000	0.000409  
433.000000	0.000984  
433.500000	0.001090  
434.000000	0.000560  
434.500000	0.000484  
435.000000	0.000803  
435.500000	0.001098  
436.000000	0.001022  
436.500000	0.001060  
437.000000	0.000969  
437.500000	0.000560  
438.000000	0.000484  
438.500000	0.000863  
439.000000	0.001151  
439.500000	0.000613  
440.000000	0.000075  
440.500000	-0.000121 
441.000000	0.000000  
441.500000	0.000000  
442.000000	0.000000  
442.500000	0.000000  
443.000000	-0.000060 
443.500000	-0.000053 
444.000000	0.000287  
444.500000	0.000757  
445.000000	0.001984  
445.500000	0.003265  
446.000000	0.003803  
446.500000	0.002530  
447.000000	0.000833  
447.500000	-0.000227 
448.000000	-0.000121 
448.500000	0.000000  
449.000000	0.000000  
449.500000	0.000000  
450.000000	0.000000  
450.500000	0.000000  
451.000000	0.000000  
451.500000	0.000000  
452.000000	-0.000060 
452.500000	-0.000053 
453.000000	0.000409  
453.500000	0.000984  
454.000000	0.001151  
454.500000	0.000613  
455.000000	0.000075  
455.500000	-0.000121 
456.000000	0.000000  
456.500000	0.000000  
457.000000	0.000000  
457.500000	-0.000121 
458.000000	-0.000166 
458.500000	0.000886  
459.000000	0.002242  
459.500000	0.002742  
460.000000	0.001500  
460.500000	0.000219  
461.000000	-0.000303 
461.500000	0.000000  
462.000000	0.000000  
462.500000	0.000000  
463.000000	0.000000  
463.500000	0.000000  
464.000000	0.000000  
464.500000	-0.000060 
465.000000	-0.000053 
465.500000	0.000409  
466.000000	0.000984  
466.500000	0.001151  
467.000000	0.000613  
467.500000	0.000075  
468.000000	-0.000121 
468.500000	0.000000  
469.000000	0.000000  
469.500000	0.000000  
470.000000	0.000000  
470.500000	0.000000  
471.000000	0.000000  
471.500000	0.000000  
472.000000	0.000000  
472.500000	0.000000  
473.000000	0.000000  
473.500000	0.000000  
474.000000	0.000000  
474.500000	0.000000  
475.000000	0.000000  
475.500000	0.000000  
476.000000	0.000000  
476.500000	0.000000  
477.000000	0.000000  
477.500000	0.000000  
478.000000	0.000000  
478.500000	0.000000  
479.000000	0.000000  
479.500000	0.000000  
480.000000	0.000000  
480.500000	0.000000  
481.000000	0.000000  
481.500000	0.000000  
482.000000	0.000000  
482.500000	0.000000  
483.000000	0.000000  
483.500000	0.000000  
484.000000	0.000000  
484.500000	0.000000  
485.000000	0.000000  
485.500000	0.000000  
486.000000	0.000000  
486.500000	0.000000  
487.000000	0.000000  
487.500000	0.000000  
488.000000	0.000000  
488.500000	0.000000  
489.000000	0.000000  
489.500000	0.000000  
490.000000	0.000000  
490.500000	0.000000  
491.000000	0.000000  
491.500000	0.000000  
492.000000	0.000000  
492.500000	0.000000  
493.000000	0.000000  
493.500000	0.000000  
494.000000	0.000000  
494.500000	0.000000  
495.000000	0.000000  
495.500000	0.000000  
496.000000	0.000000  
496.500000	0.000000  
497.000000	0.000000  
497.500000	0.000000  
498.000000	0.000000  
498.500000	0.000000  
499.000000	0.000000  
499.500000	0.000000  
500.000000	0.000000  
500.500000	0.000000  
501.000000	0.000000  
501.500000	0.000000  
502.000000	0.000000  
502.500000	0.000000  
503.000000	0.000000  
503.500000	0.000000  
504.000000	0.000000  
504.500000	0.000000  
505.000000	0.000000  
505.500000	0.000000  
506.000000	-0.000060 
506.500000	-0.000053 
507.000000	0.000409  
507.500000	0.000984  
508.000000	0.001151  
508.500000	0.000613  
509.000000	0.000075  
509.500000	-0.000121 
510.000000	0.000000  
510.500000	0.000000  
511.000000	0.000000  
511.500000	0.000000  
512.000000	0.000000  
512.500000	0.000000  
513.000000	0.000000  
513.500000	0.000000  
514.000000	0.000000  
514.500000	0.000000  
515.000000	0.000000  
515.500000	0.000000  
516.000000	0.000000  
516.500000	0.000000  
517.000000	0.000000  
517.500000	0.000000  
518.000000	0.000000  
518.500000	0.000000  
519.000000	0.000000  
519.500000	0.000000  
520.000000	0.000000  
520.500000	0.000000  
521.000000	0.000000  
521.500000	0.000000  
522.000000	0.000000  
522.500000	0.000000  
523.000000	0.000000  
523.500000	0.000000  
524.000000	0.000000  
524.500000	0.000000  
525.000000	0.000000  
525.500000	0.000000  
526.000000	0.000000  
526.500000	0.000000  
527.000000	0.000000  
527.500000	0.000000  
528.000000	0.000000  
528.500000	0.000000  
529.000000	0.000000  
529.500000	0.000000  
530.000000	0.000000  
530.500000	0.000000  
531.000000	0.000000  
531.500000	0.000000  
532.000000	0.000000  
532.500000	0.000000  
533.000000	0.000000  
533.500000	0.000000  
534.000000	0.000000  
534.500000	0.000000  
535.000000	0.000000  
535.500000	0.000000  
536.000000	0.000000  
536.500000	0.000000  
537.000000	0.000000  
537.500000	0.000000  
538.000000	0.000000  
538.500000	0.000000  
539.000000	0.000000  
539.500000	0.000000  
540.000000	0.000000  
540.500000	0.000000  
541.000000	0.000000  
541.500000	0.000000  
542.000000	0.000000  
542.500000	0.000000  
543.000000	0.000000  
543.500000	0.000000  
544.000000	0.000000  
544.500000	0.000000  
545.000000	0.000000  
545.500000	0.000000  
546.000000	0.000000  
546.500000	0.000000  
547.000000	0.000000  
547.500000	0.000000  
548.000000	0.000000  
548.500000	0.000000  
549.000000	0.000000  
549.500000	0.000000  
550.000000	0.000000  
550.500000	0.000000  
551.000000	0.000000  
551.500000	0.000000  
552.000000	0.000000  
552.500000	0.000000  
553.000000	0.000000  
553.500000	0.000000  
554.000000	0.000000  
554.500000	0.000000  
555.000000	0.000000  
555.500000	0.000000  
556.000000	0.000000  
556.500000	0.000000  
557.000000	0.000000  
557.500000	0.000000  
558.000000	0.000000  
558.500000	0.000000  
559.000000	0.000000  
559.500000	0.000000  
560.000000	0.000000  
560.500000	0.000000  
561.000000	0.000000  
561.500000	0.000000  
562.000000	0.000000  
562.500000	0.000000  
563.000000	0.000000  
563.500000	0.000000  
564.000000	0.000000  
564.500000	0.000000  
565.000000	0.000000  
565.500000	0.000000  
566.000000	0.000000  
566.500000	0.000000  
567.000000	0.000000  
567.500000	0.000000  
568.000000	0.000000  
568.500000	0.000000  
569.000000	0.000000  
569.500000	0.000000  
570.000000	0.000000  
570.500000	0.000000  
571.000000	0.000000  
571.500000	0.000000  
572.000000	0.000000  
572.500000	0.000000  
573.000000	0.000000  
573.500000	0.000000  
574.000000	0.000000  
574.500000	0.000000  
575.000000	0.000000  
575.500000	0.000000  
576.000000	0.000000  
576.500000	0.000000  
577.000000	0.000000  
577.500000	0.000000  
578.000000	0.000000  
578.500000	0.000000  
579.000000	0.000000  
579.500000	0.000000  
580.000000	0.000000  

