PE FL                   SPECTRUM    ASCII       PEDS        1.60        
  -1
01#127.SP
02/03/17
01:26:50.00
02/03/17
01:28:10.00


436.500000
1









LS55
300.00
5.00
5.00
SCAN
1
20
100
100
0
100
0
1
0
1
7
ON
580 300 
1 0 0
#HDR
-1
-1
#GR
NM

0.00002384185791015625
0.0
320.000000
0.500000
234
8
0.098219
-0.000477
#DATA
320.000000	0.078000  
320.500000	0.082848  
321.000000	0.088742  
321.500000	0.095015  
322.000000	0.098219  
322.500000	0.091916  
323.000000	0.081378  
323.500000	0.074636  
324.000000	0.076704  
324.500000	0.077560  
325.000000	0.078212  
325.500000	0.077090  
326.000000	0.071431  
326.500000	0.059787  
327.000000	0.050083  
327.500000	0.045106  
328.000000	0.043287  
328.500000	0.041348  
329.000000	0.039469  
329.500000	0.039545  
330.000000	0.038053  
330.500000	0.035825  
331.000000	0.033765  
331.500000	0.034977  
332.000000	0.035666  
332.500000	0.039507  
333.000000	0.038378  
333.500000	0.038386  
334.000000	0.036060  
334.500000	0.035371  
335.000000	0.028477  
335.500000	0.022257  
336.000000	0.019060  
336.500000	0.021378  
337.000000	0.022257  
337.500000	0.022643  
338.000000	0.025181  
338.500000	0.025530  
339.000000	0.021795  
339.500000	0.016750  
340.000000	0.014477  
340.500000	0.011863  
341.000000	0.009234  
341.500000	0.007227  
342.000000	0.009075  
342.500000	0.010795  
343.000000	0.012212  
343.500000	0.012196  
344.000000	0.009151  
344.500000	0.004477  
345.000000	0.003106  
345.500000	0.004924  
346.000000	0.006037  
346.500000	0.004477  
347.000000	0.001840  
347.500000	0.001090  
348.000000	0.002136  
348.500000	0.002446  
349.000000	0.001681  
349.500000	0.002037  
350.000000	0.003378  
350.500000	0.004174  
351.000000	0.003492  
351.500000	0.002787  
352.000000	0.003159  
352.500000	0.002984  
353.000000	0.004954  
353.500000	0.007060  
354.000000	0.008280  
354.500000	0.005825  
355.000000	0.003568  
355.500000	0.001969  
356.000000	0.001378  
356.500000	0.000159  
357.000000	-0.000416 
357.500000	0.000356  
358.000000	0.001393  
358.500000	0.002136  
359.000000	0.001765  
359.500000	0.000689  
360.000000	-0.000045 
360.500000	-0.000121 
361.000000	0.000000  
361.500000	-0.000121 
362.000000	-0.000166 
362.500000	0.000886  
363.000000	0.002242  
363.500000	0.002742  
364.000000	0.001500  
364.500000	0.000219  
365.000000	-0.000303 
365.500000	0.000000  
366.000000	0.000000  
366.500000	0.000000  
367.000000	0.000000  
367.500000	0.000000  
368.000000	0.000000  
368.500000	0.000000  
369.000000	0.000000  
369.500000	0.000000  
370.000000	0.000000  
370.500000	-0.000060 
371.000000	-0.000053 
371.500000	0.000409  
372.000000	0.000984  
372.500000	0.001151  
373.000000	0.000613  
373.500000	0.000075  
374.000000	-0.000121 
374.500000	0.000000  
375.000000	0.000000  
375.500000	0.000000  
376.000000	0.000000  
376.500000	0.000000  
377.000000	0.000000  
377.500000	0.000000  
378.000000	0.000000  
378.500000	0.000000  
379.000000	0.000000  
379.500000	0.000000  
380.000000	0.000000  
380.500000	0.000000  
381.000000	-0.000060 
381.500000	-0.000053 
382.000000	0.000409  
382.500000	0.000984  
383.000000	0.001151  
383.500000	0.000613  
384.000000	0.000075  
384.500000	-0.000121 
385.000000	0.000000  
385.500000	0.000000  
386.000000	0.000000  
386.500000	-0.000060 
387.000000	-0.000053 
387.500000	0.000409  
388.000000	0.000924  
388.500000	0.001098  
389.000000	0.001022  
389.500000	0.001060  
390.000000	0.000909  
390.500000	0.000446  
391.000000	0.000962  
391.500000	0.002121  
392.000000	0.002742  
392.500000	0.001500  
393.000000	0.000219  
393.500000	-0.000303 
394.000000	0.000000  
394.500000	0.000000  
395.000000	-0.000060 
395.500000	-0.000053 
396.000000	0.000348  
396.500000	0.000931  
397.000000	0.001439  
397.500000	0.001431  
398.000000	0.002113  
398.500000	0.002734  
399.000000	0.002818  
399.500000	0.001257  
400.000000	0.000053  
400.500000	0.000522  
401.000000	0.002189  
401.500000	0.003090  
402.000000	0.002431  
402.500000	0.001780  
403.000000	0.001295  
403.500000	0.001227  
404.000000	0.000492  
404.500000	-0.000045 
405.000000	-0.000409 
405.500000	0.000719  
406.000000	0.003128  
406.500000	0.004984  
407.000000	0.004242  
407.500000	0.001719  
408.000000	-0.000143 
408.500000	-0.000477 
409.000000	0.000242  
409.500000	0.001871  
410.000000	0.003393  
410.500000	0.003234  
411.000000	0.001409  
411.500000	0.000984  
412.000000	0.001939  
412.500000	0.002681  
413.000000	0.001325  
413.500000	0.000462  
414.000000	0.001507  
414.500000	0.003280  
415.000000	0.003409  
415.500000	0.002401  
416.000000	0.004560  
416.500000	0.007696  
417.000000	0.009053  
417.500000	0.005371  
418.000000	0.001628  
418.500000	-0.000462 
419.000000	0.000840  
419.500000	0.001893  
420.000000	0.003575  
420.500000	0.004090  
421.000000	0.003893  
421.500000	0.002757  
422.000000	0.001818  
422.500000	0.000924  
423.000000	0.000492  
423.500000	0.000075  
424.000000	-0.000242 
424.500000	-0.000166 
425.000000	0.000886  
425.500000	0.002060  
426.000000	0.002401  
426.500000	0.002810  
427.000000	0.004128  
427.500000	0.004954  
428.000000	0.003484  
428.500000	0.001386  
429.000000	0.000575  
429.500000	0.000909  
430.000000	0.000446  
430.500000	0.000962  
431.000000	0.002121  
431.500000	0.002681  
432.000000	0.001446  
432.500000	0.000568  
433.000000	0.000628  
433.500000	0.001500  
434.000000	0.001545  
434.500000	0.001636  
435.000000	0.001477  
435.500000	0.001227  
436.000000	0.000613  
436.500000	-0.000000 

