PE FL                   SPECTRUM    ASCII       PEDS        1.60        
  -1
01#132.SP
02/03/17
01:50:25.00
02/03/17
01:52:49.00


550.000000
1









LS55
310.00
5.00
5.00
SCAN
1
20
100
100
0
100
0
1
0
1
7
ON
600 310 
1 0 0
#HDR
-1
-1
#GR
NM

0.00002384185791015625
0.0
330.000000
0.500000
441
8
0.011159
-0.000537
#DATA
330.000000	0.000000  
330.500000	0.000000  
331.000000	0.000000  
331.500000	0.000000  
332.000000	-0.000060 
332.500000	-0.000053 
333.000000	0.000409  
333.500000	0.000984  
334.000000	0.001151  
334.500000	0.000613  
335.000000	0.000075  
335.500000	-0.000121 
336.000000	0.000000  
336.500000	0.000000  
337.000000	0.000000  
337.500000	0.000000  
338.000000	0.000000  
338.500000	0.000000  
339.000000	0.000000  
339.500000	0.000000  
340.000000	0.000000  
340.500000	0.000000  
341.000000	0.000000  
341.500000	0.000000  
342.000000	0.000000  
342.500000	0.000000  
343.000000	0.000000  
343.500000	0.000000  
344.000000	0.000000  
344.500000	0.000000  
345.000000	0.000000  
345.500000	0.000000  
346.000000	0.000000  
346.500000	0.000000  
347.000000	0.000000  
347.500000	0.000000  
348.000000	0.000000  
348.500000	0.000000  
349.000000	0.000000  
349.500000	0.000000  
350.000000	0.000000  
350.500000	0.000000  
351.000000	0.000000  
351.500000	0.000000  
352.000000	0.000000  
352.500000	0.000000  
353.000000	0.000000  
353.500000	0.000000  
354.000000	0.000000  
354.500000	0.000000  
355.000000	0.000000  
355.500000	0.000000  
356.000000	0.000000  
356.500000	0.000000  
357.000000	0.000000  
357.500000	0.000000  
358.000000	0.000000  
358.500000	0.000000  
359.000000	0.000000  
359.500000	0.000000  
360.000000	0.000000  
360.500000	0.000000  
361.000000	0.000000  
361.500000	0.000000  
362.000000	0.000000  
362.500000	0.000000  
363.000000	0.000000  
363.500000	0.000000  
364.000000	0.000000  
364.500000	0.000000  
365.000000	0.000000  
365.500000	0.000000  
366.000000	0.000000  
366.500000	0.000000  
367.000000	0.000000  
367.500000	0.000000  
368.000000	0.000000  
368.500000	0.000000  
369.000000	0.000000  
369.500000	0.000000  
370.000000	0.000000  
370.500000	0.000000  
371.000000	0.000000  
371.500000	0.000000  
372.000000	0.000000  
372.500000	0.000000  
373.000000	0.000000  
373.500000	0.000000  
374.000000	0.000000  
374.500000	0.000000  
375.000000	0.000000  
375.500000	0.000000  
376.000000	0.000000  
376.500000	0.000000  
377.000000	0.000000  
377.500000	0.000000  
378.000000	-0.000121 
378.500000	-0.000166 
379.000000	0.000886  
379.500000	0.002181  
380.000000	0.002689  
380.500000	0.001848  
381.000000	0.001151  
381.500000	0.001257  
382.000000	0.001598  
382.500000	0.001227  
383.000000	0.000492  
383.500000	0.000075  
384.000000	-0.000121 
384.500000	0.000000  
385.000000	0.000000  
385.500000	-0.000060 
386.000000	-0.000053 
386.500000	0.000409  
387.000000	0.000984  
387.500000	0.001151  
388.000000	0.000613  
388.500000	0.000075  
389.000000	-0.000181 
389.500000	-0.000053 
390.000000	0.000409  
390.500000	0.000863  
391.000000	0.000803  
391.500000	0.001704  
392.000000	0.003136  
392.500000	0.003939  
393.000000	0.002318  
393.500000	0.000363  
394.000000	-0.000537 
394.500000	0.000409  
395.000000	0.000863  
395.500000	0.000803  
396.000000	0.001219  
396.500000	0.003621  
397.000000	0.005886  
397.500000	0.005962  
398.000000	0.004954  
398.500000	0.004651  
399.000000	0.004287  
399.500000	0.002704  
400.000000	0.002113  
400.500000	0.002787  
401.000000	0.003128  
401.500000	0.002287  
402.000000	0.002522  
402.500000	0.004257  
403.000000	0.005242  
403.500000	0.004507  
404.000000	0.002772  
404.500000	0.001643  
405.000000	0.001212  
405.500000	0.001250  
406.000000	0.001939  
406.500000	0.002977  
407.000000	0.004568  
407.500000	0.004606  
408.000000	0.004340  
408.500000	0.003166  
409.000000	0.003446  
409.500000	0.004681  
410.000000	0.006598  
410.500000	0.006015  
411.000000	0.003250  
411.500000	0.000553  
412.000000	0.001477  
412.500000	0.005681  
413.000000	0.009598  
413.500000	0.011159  
414.000000	0.009068  
414.500000	0.006757  
415.000000	0.005083  
415.500000	0.005022  
416.000000	0.003984  
416.500000	0.002818  
417.000000	0.002075  
417.500000	0.003643  
418.000000	0.005287  
418.500000	0.005053  
419.000000	0.003219  
419.500000	0.001401  
420.000000	0.001219  
420.500000	0.001833  
421.000000	0.002500  
421.500000	0.002401  
422.000000	0.002553  
422.500000	0.002931  
423.000000	0.004340  
423.500000	0.005606  
424.000000	0.006166  
424.500000	0.004946  
425.000000	0.003037  
425.500000	0.001166  
426.000000	0.001530  
426.500000	0.003916  
427.000000	0.005856  
427.500000	0.007098  
428.000000	0.006946  
428.500000	0.006371  
429.000000	0.004416  
429.500000	0.005113  
430.000000	0.006893  
430.500000	0.008704  
431.000000	0.005795  
431.500000	0.002643  
432.000000	0.001234  
432.500000	0.002037  
433.000000	0.001931  
433.500000	0.001386  
434.000000	0.001825  
434.500000	0.003560  
435.000000	0.004886  
435.500000	0.004363  
436.000000	0.003590  
436.500000	0.003310  
437.000000	0.002992  
437.500000	0.001340  
438.000000	0.000227  
438.500000	0.001803  
439.000000	0.004621  
439.500000	0.006378  
440.000000	0.005522  
440.500000	0.003416  
441.000000	0.001507  
441.500000	0.001492  
442.000000	0.001833  
442.500000	0.001643  
443.000000	0.000522  
443.500000	0.000840  
444.000000	0.001939  
444.500000	0.002280  
445.000000	0.003007  
445.500000	0.004424  
446.000000	0.005643  
446.500000	0.004545  
447.000000	0.003113  
447.500000	0.002083  
448.000000	0.001840  
448.500000	0.000568  
449.000000	-0.000045 
449.500000	-0.000121 
450.000000	0.000000  
450.500000	-0.000121 
451.000000	-0.000166 
451.500000	0.000765  
452.000000	0.002075  
452.500000	0.003568  
453.000000	0.003689  
453.500000	0.003371  
454.000000	0.002181  
454.500000	0.001310  
455.000000	0.000257  
455.500000	0.000484  
456.000000	0.000803  
456.500000	0.001098  
457.000000	0.001022  
457.500000	0.001060  
458.000000	0.001030  
458.500000	0.000613  
459.000000	0.000075  
459.500000	-0.000121 
460.000000	0.000000  
460.500000	0.000000  
461.000000	0.000000  
461.500000	0.000000  
462.000000	-0.000060 
462.500000	-0.000053 
463.000000	0.000409  
463.500000	0.000984  
464.000000	0.001151  
464.500000	0.000613  
465.000000	0.000075  
465.500000	-0.000121 
466.000000	0.000000  
466.500000	0.000000  
467.000000	0.000000  
467.500000	0.000000  
468.000000	0.000000  
468.500000	0.000000  
469.000000	0.000000  
469.500000	0.000000  
470.000000	0.000000  
470.500000	0.000000  
471.000000	0.000000  
471.500000	0.000000  
472.000000	0.000000  
472.500000	0.000000  
473.000000	0.000000  
473.500000	0.000000  
474.000000	0.000000  
474.500000	0.000000  
475.000000	0.000000  
475.500000	0.000000  
476.000000	0.000000  
476.500000	0.000000  
477.000000	0.000000  
477.500000	0.000000  
478.000000	0.000000  
478.500000	0.000000  
479.000000	0.000000  
479.500000	0.000000  
480.000000	0.000000  
480.500000	0.000000  
481.000000	0.000000  
481.500000	0.000000  
482.000000	-0.000060 
482.500000	-0.000053 
483.000000	0.000409  
483.500000	0.000984  
484.000000	0.001090  
484.500000	0.000560  
485.000000	0.000484  
485.500000	0.000863  
486.000000	0.001151  
486.500000	0.000613  
487.000000	0.000075  
487.500000	-0.000121 
488.000000	-0.000060 
488.500000	-0.000053 
489.000000	0.000409  
489.500000	0.000984  
490.000000	0.001151  
490.500000	0.000613  
491.000000	0.000075  
491.500000	-0.000121 
492.000000	0.000000  
492.500000	0.000000  
493.000000	0.000000  
493.500000	0.000000  
494.000000	0.000000  
494.500000	0.000000  
495.000000	0.000000  
495.500000	0.000000  
496.000000	0.000000  
496.500000	0.000000  
497.000000	0.000000  
497.500000	0.000000  
498.000000	0.000000  
498.500000	0.000000  
499.000000	0.000000  
499.500000	0.000000  
500.000000	0.000000  
500.500000	0.000000  
501.000000	0.000000  
501.500000	0.000000  
502.000000	0.000000  
502.500000	0.000000  
503.000000	0.000000  
503.500000	0.000000  
504.000000	0.000000  
504.500000	0.000000  
505.000000	0.000000  
505.500000	0.000000  
506.000000	0.000000  
506.500000	0.000000  
507.000000	0.000000  
507.500000	0.000000  
508.000000	0.000000  
508.500000	0.000000  
509.000000	0.000000  
509.500000	0.000000  
510.000000	0.000000  
510.500000	0.000000  
511.000000	0.000000  
511.500000	0.000000  
512.000000	0.000000  
512.500000	0.000000  
513.000000	0.000000  
513.500000	0.000000  
514.000000	0.000000  
514.500000	0.000000  
515.000000	0.000000  
515.500000	0.000000  
516.000000	0.000000  
516.500000	0.000000  
517.000000	0.000000  
517.500000	0.000000  
518.000000	0.000000  
518.500000	0.000000  
519.000000	0.000000  
519.500000	0.000000  
520.000000	0.000000  
520.500000	0.000000  
521.000000	0.000000  
521.500000	0.000000  
522.000000	0.000000  
522.500000	0.000000  
523.000000	0.000000  
523.500000	0.000000  
524.000000	0.000000  
524.500000	0.000000  
525.000000	0.000000  
525.500000	0.000000  
526.000000	0.000000  
526.500000	0.000000  
527.000000	0.000000  
527.500000	0.000000  
528.000000	0.000000  
528.500000	0.000000  
529.000000	0.000000  
529.500000	0.000000  
530.000000	0.000000  
530.500000	0.000000  
531.000000	0.000000  
531.500000	0.000000  
532.000000	0.000000  
532.500000	0.000000  
533.000000	0.000000  
533.500000	0.000000  
534.000000	0.000000  
534.500000	0.000000  
535.000000	0.000000  
535.500000	0.000000  
536.000000	0.000000  
536.500000	0.000000  
537.000000	0.000000  
537.500000	0.000000  
538.000000	0.000000  
538.500000	0.000000  
539.000000	0.000000  
539.500000	0.000000  
540.000000	0.000000  
540.500000	0.000000  
541.000000	0.000000  
541.500000	0.000000  
542.000000	0.000000  
542.500000	0.000000  
543.000000	0.000000  
543.500000	0.000000  
544.000000	0.000000  
544.500000	0.000000  
545.000000	0.000000  
545.500000	0.000000  
546.000000	0.000000  
546.500000	0.000000  
547.000000	0.000000  
547.500000	0.000000  
548.000000	0.000000  
548.500000	0.000000  
549.000000	0.000000  
549.500000	0.000000  
550.000000	0.000000  

