PE FL                   SPECTRUM    ASCII       PEDS        1.60        
  -1
01#131.SP
02/03/17
01:42:45.00
02/03/17
01:48:21.00


600.000000
1









LS55
310.00
5.00
5.00
SCAN
1
20
100
100
0
50
0
1
0
1
7
ON
600 310 
1 0 0
#HDR
-1
-1
#GR
NM

0.00002384185791015625
0.0
330.000000
0.500000
541
8
0.014030
-0.000303
#DATA
330.000000	0.000000  
330.500000	0.000000  
331.000000	-0.000060 
331.500000	-0.000053 
332.000000	0.000409  
332.500000	0.000984  
333.000000	0.001151  
333.500000	0.000613  
334.000000	0.000075  
334.500000	-0.000121 
335.000000	0.000000  
335.500000	0.000000  
336.000000	0.000000  
336.500000	0.000000  
337.000000	-0.000060 
337.500000	-0.000053 
338.000000	0.000409  
338.500000	0.000984  
339.000000	0.001151  
339.500000	0.000553  
340.000000	0.000022  
340.500000	0.000227  
341.000000	0.000931  
341.500000	0.001560  
342.000000	0.001598  
342.500000	0.001227  
343.000000	0.000492  
343.500000	0.000015  
344.000000	-0.000174 
344.500000	0.000409  
345.000000	0.000984  
345.500000	0.001151  
346.000000	0.000553  
346.500000	0.000022  
347.000000	0.000287  
347.500000	0.000924  
348.000000	0.001098  
348.500000	0.001022  
349.000000	0.001060  
349.500000	0.001030  
350.000000	0.000492  
350.500000	-0.000090 
351.000000	0.000765  
351.500000	0.002181  
352.000000	0.002689  
352.500000	0.001909  
353.000000	0.001204  
353.500000	0.000848  
354.000000	0.000553  
354.500000	0.000022  
355.000000	0.000287  
355.500000	0.000984  
356.000000	0.001090  
356.500000	0.000499  
357.000000	0.000371  
357.500000	0.001159  
358.000000	0.002431  
358.500000	0.003106  
359.000000	0.003234  
359.500000	0.002643  
360.000000	0.001606  
360.500000	0.000863  
361.000000	0.001295  
361.500000	0.002363  
362.000000	0.002515  
362.500000	0.001969  
363.000000	0.002734  
363.500000	0.004689  
364.000000	0.005719  
364.500000	0.004212  
365.000000	0.002234  
365.500000	0.001545  
366.000000	0.002386  
366.500000	0.002742  
367.000000	0.002840  
367.500000	0.004545  
368.000000	0.006356  
368.500000	0.006143  
369.000000	0.004257  
369.500000	0.003333  
370.000000	0.003628  
370.500000	0.003484  
371.000000	0.003393  
371.500000	0.003871  
372.000000	0.004242  
372.500000	0.002727  
373.000000	0.002295  
373.500000	0.003704  
374.000000	0.006083  
374.500000	0.007621  
375.000000	0.007696  
375.500000	0.007416  
376.000000	0.006469  
376.500000	0.005909  
377.000000	0.006060  
377.500000	0.008295  
378.000000	0.009598  
378.500000	0.009810  
379.000000	0.008136  
379.500000	0.006537  
380.000000	0.005159  
380.500000	0.004265  
381.000000	0.003469  
381.500000	0.002636  
382.000000	0.001409  
382.500000	0.001659  
383.000000	0.003757  
383.500000	0.006189  
384.000000	0.008719  
384.500000	0.010727  
385.000000	0.010166  
385.500000	0.006537  
386.000000	0.003431  
386.500000	0.004007  
387.000000	0.006393  
387.500000	0.006348  
388.000000	0.006204  
388.500000	0.006590  
389.000000	0.007810  
389.500000	0.007803  
390.000000	0.007234  
390.500000	0.006386  
391.000000	0.006181  
391.500000	0.005749  
392.000000	0.006189  
392.500000	0.007712  
393.000000	0.008742  
393.500000	0.009719  
394.000000	0.009242  
394.500000	0.009840  
395.000000	0.010234  
395.500000	0.010030  
396.000000	0.008492  
396.500000	0.008439  
397.000000	0.009136  
397.500000	0.010689  
398.000000	0.010492  
398.500000	0.009348  
399.000000	0.008265  
399.500000	0.008992  
400.000000	0.008507  
400.500000	0.007242  
401.000000	0.006000  
401.500000	0.007795  
402.000000	0.009280  
402.500000	0.009265  
403.000000	0.007742  
403.500000	0.006651  
404.000000	0.005318  
404.500000	0.003848  
405.000000	0.003022  
405.500000	0.002810  
406.000000	0.002295  
406.500000	0.002515  
407.000000	0.004007  
407.500000	0.005946  
408.000000	0.006772  
408.500000	0.006234  
409.000000	0.005416  
409.500000	0.006621  
410.000000	0.010462  
410.500000	0.013803  
411.000000	0.014030  
411.500000	0.010780  
412.000000	0.007560  
412.500000	0.006401  
413.000000	0.006636  
413.500000	0.006257  
414.000000	0.005348  
414.500000	0.004681  
415.000000	0.004492  
415.500000	0.004598  
416.000000	0.004795  
416.500000	0.005250  
417.000000	0.004871  
417.500000	0.003219  
418.000000	0.001462  
418.500000	0.001212  
419.000000	0.001250  
419.500000	0.001939  
420.000000	0.002795  
420.500000	0.004409  
421.000000	0.006075  
421.500000	0.007022  
422.000000	0.005893  
422.500000	0.003242  
423.000000	0.001924  
423.500000	0.002553  
424.000000	0.004575  
424.500000	0.005068  
425.000000	0.004856  
425.500000	0.003704  
426.000000	0.003143  
426.500000	0.002878  
427.000000	0.003053  
427.500000	0.002651  
428.000000	0.002068  
428.500000	0.001439  
429.000000	0.001401  
429.500000	0.001772  
430.000000	0.002568  
430.500000	0.003037  
431.000000	0.002765  
431.500000	0.001606  
432.000000	0.000924  
432.500000	0.001348  
433.000000	0.001954  
433.500000	0.001712  
434.000000	0.001098  
434.500000	0.000939  
435.000000	0.001030  
435.500000	0.000613  
436.000000	0.000075  
436.500000	-0.000121 
437.000000	-0.000060 
437.500000	-0.000053 
438.000000	0.000409  
438.500000	0.000984  
439.000000	0.001151  
439.500000	0.000613  
440.000000	0.000015  
440.500000	-0.000234 
441.000000	0.000356  
441.500000	0.001333  
442.000000	0.002083  
442.500000	0.002113  
443.000000	0.001621  
443.500000	0.001515  
444.000000	0.001416  
444.500000	0.001174  
445.000000	0.000901  
445.500000	0.001060  
446.000000	0.001030  
446.500000	0.000613  
447.000000	0.000075  
447.500000	-0.000121 
448.000000	0.000000  
448.500000	0.000000  
449.000000	0.000000  
449.500000	0.000000  
450.000000	0.000000  
450.500000	0.000000  
451.000000	0.000000  
451.500000	0.000000  
452.000000	0.000000  
452.500000	0.000000  
453.000000	0.000000  
453.500000	0.000000  
454.000000	-0.000121 
454.500000	-0.000166 
455.000000	0.000886  
455.500000	0.002242  
456.000000	0.002742  
456.500000	0.001500  
457.000000	0.000219  
457.500000	-0.000303 
458.000000	0.000000  
458.500000	0.000000  
459.000000	0.000000  
459.500000	0.000000  
460.000000	0.000000  
460.500000	0.000000  
461.000000	0.000000  
461.500000	0.000000  
462.000000	0.000000  
462.500000	0.000000  
463.000000	0.000000  
463.500000	-0.000060 
464.000000	-0.000053 
464.500000	0.000409  
465.000000	0.000984  
465.500000	0.001151  
466.000000	0.000613  
466.500000	0.000075  
467.000000	-0.000121 
467.500000	0.000000  
468.000000	0.000000  
468.500000	0.000000  
469.000000	0.000000  
469.500000	0.000000  
470.000000	0.000000  
470.500000	0.000000  
471.000000	0.000000  
471.500000	0.000000  
472.000000	0.000000  
472.500000	0.000000  
473.000000	0.000000  
473.500000	0.000000  
474.000000	0.000000  
474.500000	0.000000  
475.000000	0.000000  
475.500000	0.000000  
476.000000	0.000000  
476.500000	0.000000  
477.000000	0.000000  
477.500000	0.000000  
478.000000	0.000000  
478.500000	0.000000  
479.000000	0.000000  
479.500000	0.000000  
480.000000	0.000000  
480.500000	0.000000  
481.000000	0.000000  
481.500000	0.000000  
482.000000	0.000000  
482.500000	0.000000  
483.000000	0.000000  
483.500000	0.000000  
484.000000	0.000000  
484.500000	0.000000  
485.000000	0.000000  
485.500000	0.000000  
486.000000	0.000000  
486.500000	0.000000  
487.000000	0.000000  
487.500000	0.000000  
488.000000	0.000000  
488.500000	0.000000  
489.000000	0.000000  
489.500000	0.000000  
490.000000	0.000000  
490.500000	0.000000  
491.000000	0.000000  
491.500000	0.000000  
492.000000	0.000000  
492.500000	0.000000  
493.000000	0.000000  
493.500000	0.000000  
494.000000	0.000000  
494.500000	0.000000  
495.000000	0.000000  
495.500000	0.000000  
496.000000	0.000000  
496.500000	0.000000  
497.000000	0.000000  
497.500000	0.000000  
498.000000	0.000000  
498.500000	0.000000  
499.000000	0.000000  
499.500000	0.000000  
500.000000	0.000000  
500.500000	0.000000  
501.000000	0.000000  
501.500000	0.000000  
502.000000	0.000000  
502.500000	0.000000  
503.000000	0.000000  
503.500000	0.000000  
504.000000	0.000000  
504.500000	0.000000  
505.000000	0.000000  
505.500000	0.000000  
506.000000	0.000000  
506.500000	0.000000  
507.000000	0.000000  
507.500000	0.000000  
508.000000	0.000000  
508.500000	0.000000  
509.000000	0.000000  
509.500000	0.000000  
510.000000	0.000000  
510.500000	0.000000  
511.000000	0.000000  
511.500000	0.000000  
512.000000	0.000000  
512.500000	0.000000  
513.000000	0.000000  
513.500000	0.000000  
514.000000	0.000000  
514.500000	0.000000  
515.000000	0.000000  
515.500000	0.000000  
516.000000	0.000000  
516.500000	0.000000  
517.000000	0.000000  
517.500000	0.000000  
518.000000	0.000000  
518.500000	0.000000  
519.000000	0.000000  
519.500000	0.000000  
520.000000	0.000000  
520.500000	0.000000  
521.000000	0.000000  
521.500000	0.000000  
522.000000	0.000000  
522.500000	0.000000  
523.000000	0.000000  
523.500000	0.000000  
524.000000	0.000000  
524.500000	0.000000  
525.000000	0.000000  
525.500000	0.000000  
526.000000	0.000000  
526.500000	0.000000  
527.000000	0.000000  
527.500000	0.000000  
528.000000	0.000000  
528.500000	0.000000  
529.000000	0.000000  
529.500000	0.000000  
530.000000	0.000000  
530.500000	0.000000  
531.000000	0.000000  
531.500000	0.000000  
532.000000	0.000000  
532.500000	0.000000  
533.000000	0.000000  
533.500000	0.000000  
534.000000	0.000000  
534.500000	0.000000  
535.000000	0.000000  
535.500000	0.000000  
536.000000	0.000000  
536.500000	0.000000  
537.000000	0.000000  
537.500000	0.000000  
538.000000	0.000000  
538.500000	0.000000  
539.000000	0.000000  
539.500000	0.000000  
540.000000	0.000000  
540.500000	0.000000  
541.000000	0.000000  
541.500000	0.000000  
542.000000	0.000000  
542.500000	0.000000  
543.000000	0.000000  
543.500000	0.000000  
544.000000	0.000000  
544.500000	0.000000  
545.000000	0.000000  
545.500000	0.000000  
546.000000	0.000000  
546.500000	0.000000  
547.000000	0.000000  
547.500000	0.000000  
548.000000	0.000000  
548.500000	0.000000  
549.000000	0.000000  
549.500000	0.000000  
550.000000	0.000000  
550.500000	0.000000  
551.000000	0.000000  
551.500000	0.000000  
552.000000	0.000000  
552.500000	0.000000  
553.000000	0.000000  
553.500000	0.000000  
554.000000	0.000000  
554.500000	0.000000  
555.000000	0.000000  
555.500000	0.000000  
556.000000	0.000000  
556.500000	0.000000  
557.000000	0.000000  
557.500000	0.000000  
558.000000	0.000000  
558.500000	0.000000  
559.000000	0.000000  
559.500000	0.000000  
560.000000	0.000000  
560.500000	0.000000  
561.000000	0.000000  
561.500000	0.000000  
562.000000	0.000000  
562.500000	0.000000  
563.000000	0.000000  
563.500000	0.000000  
564.000000	0.000000  
564.500000	0.000000  
565.000000	0.000000  
565.500000	0.000000  
566.000000	0.000000  
566.500000	0.000000  
567.000000	0.000000  
567.500000	0.000000  
568.000000	0.000000  
568.500000	0.000000  
569.000000	0.000000  
569.500000	0.000000  
570.000000	0.000000  
570.500000	0.000000  
571.000000	0.000000  
571.500000	0.000000  
572.000000	0.000000  
572.500000	0.000000  
573.000000	0.000000  
573.500000	0.000000  
574.000000	0.000000  
574.500000	0.000000  
575.000000	0.000000  
575.500000	0.000000  
576.000000	0.000000  
576.500000	0.000000  
577.000000	0.000000  
577.500000	0.000000  
578.000000	0.000000  
578.500000	0.000000  
579.000000	0.000000  
579.500000	0.000000  
580.000000	0.000000  
580.500000	0.000000  
581.000000	0.000000  
581.500000	0.000000  
582.000000	0.000000  
582.500000	0.000000  
583.000000	0.000000  
583.500000	0.000000  
584.000000	0.000000  
584.500000	0.000000  
585.000000	0.000000  
585.500000	0.000000  
586.000000	0.000000  
586.500000	0.000000  
587.000000	0.000000  
587.500000	0.000000  
588.000000	0.000000  
588.500000	0.000000  
589.000000	0.000000  
589.500000	0.000000  
590.000000	0.000000  
590.500000	0.000000  
591.000000	0.000000  
591.500000	0.000000  
592.000000	0.000000  
592.500000	0.000000  
593.000000	0.000000  
593.500000	0.000000  
594.000000	0.000000  
594.500000	0.000000  
595.000000	0.000000  
595.500000	0.000000  
596.000000	0.000000  
596.500000	0.000000  
597.000000	0.000000  
597.500000	0.000000  
598.000000	0.000000  
598.500000	0.000000  
599.000000	0.000000  
599.500000	0.000000  
600.000000	0.000000  

