PE FL                   SPECTRUM    ASCII       PEDS        1.60        
  -1
01#133.SP
02/03/17
01:54:24.00
02/03/17
01:56:46.00


550.000000
1









LS55
310.00
5.00
5.00
SCAN
1
20
100
100
0
100
0
1
0
1
7
ON
550 310 
1 0 0
#HDR
-1
-1
#GR
NM

0.00002384185791015625
0.0
330.000000
0.500000
441
8
0.097234
-0.000068
#DATA
330.000000	0.010000  
330.500000	0.023181  
331.000000	0.028909  
331.500000	0.026803  
332.000000	0.024166  
332.500000	0.023166  
333.000000	0.022916  
333.500000	0.024151  
334.000000	0.022969  
334.500000	0.021674  
335.000000	0.020477  
335.500000	0.025446  
336.000000	0.029015  
336.500000	0.031174  
337.000000	0.026227  
337.500000	0.023780  
338.000000	0.022621  
338.500000	0.023901  
339.000000	0.022431  
339.500000	0.020045  
340.000000	0.017196  
340.500000	0.017606  
341.000000	0.018484  
341.500000	0.021969  
342.000000	0.024416  
342.500000	0.022727  
343.000000	0.017356  
343.500000	0.013818  
344.000000	0.016053  
344.500000	0.019772  
345.000000	0.023439  
345.500000	0.022333  
346.000000	0.018333  
346.500000	0.012280  
347.000000	0.018234  
347.500000	0.028553  
348.000000	0.032234  
348.500000	0.022651  
349.000000	0.014166  
349.500000	0.013265  
350.000000	0.016492  
350.500000	0.017075  
351.000000	0.016795  
351.500000	0.016772  
352.000000	0.016007  
352.500000	0.015265  
353.000000	0.016128  
353.500000	0.016492  
354.000000	0.018219  
354.500000	0.020060  
355.000000	0.021075  
355.500000	0.019659  
356.000000	0.017022  
356.500000	0.014401  
357.000000	0.012242  
357.500000	0.013583  
358.000000	0.017416  
358.500000	0.021431  
359.000000	0.019863  
359.500000	0.016522  
360.000000	0.014121  
360.500000	0.013469  
361.000000	0.012795  
361.500000	0.013901  
362.000000	0.015916  
362.500000	0.018106  
363.000000	0.021053  
363.500000	0.024030  
364.000000	0.026143  
364.500000	0.025681  
365.000000	0.023734  
365.500000	0.021287  
366.000000	0.019613  
366.500000	0.018780  
367.000000	0.018727  
367.500000	0.021257  
368.000000	0.028484  
368.500000	0.034606  
369.000000	0.032303  
369.500000	0.027204  
370.000000	0.026803  
370.500000	0.031712  
371.000000	0.030090  
371.500000	0.024484  
372.000000	0.019871  
372.500000	0.022272  
373.000000	0.023000  
373.500000	0.021280  
374.000000	0.015000  
374.500000	0.012090  
375.000000	0.016643  
375.500000	0.022234  
376.000000	0.022924  
376.500000	0.018507  
377.000000	0.016795  
377.500000	0.019659  
378.000000	0.021356  
378.500000	0.019560  
379.000000	0.017931  
379.500000	0.021295  
380.000000	0.026060  
380.500000	0.027204  
381.000000	0.020492  
381.500000	0.016181  
382.000000	0.022954  
382.500000	0.035431  
383.000000	0.040780  
383.500000	0.034598  
384.000000	0.030348  
384.500000	0.033560  
385.000000	0.037833  
385.500000	0.034416  
386.000000	0.027825  
386.500000	0.024803  
387.000000	0.027037  
387.500000	0.029712  
388.000000	0.029500  
388.500000	0.026931  
389.000000	0.027500  
389.500000	0.033651  
390.000000	0.041030  
390.500000	0.042856  
391.000000	0.041439  
391.500000	0.039575  
392.000000	0.039280  
392.500000	0.037856  
393.000000	0.040151  
393.500000	0.045878  
394.000000	0.051810  
394.500000	0.050583  
395.000000	0.048560  
395.500000	0.049803  
396.000000	0.056818  
396.500000	0.056689  
397.000000	0.057340  
397.500000	0.065090  
398.000000	0.072871  
398.500000	0.066901  
399.000000	0.050674  
399.500000	0.040681  
400.000000	0.038757  
400.500000	0.046234  
401.000000	0.055325  
401.500000	0.066348  
402.000000	0.066833  
402.500000	0.063704  
403.000000	0.065090  
403.500000	0.070303  
404.000000	0.071871  
404.500000	0.070810  
405.000000	0.074515  
405.500000	0.082643  
406.000000	0.091954  
406.500000	0.097234  
407.000000	0.094757  
407.500000	0.084348  
408.000000	0.073681  
408.500000	0.070431  
409.000000	0.067984  
409.500000	0.062356  
410.000000	0.059916  
410.500000	0.067712  
411.000000	0.074030  
411.500000	0.068787  
412.000000	0.057643  
412.500000	0.058462  
413.000000	0.065628  
413.500000	0.067863  
414.000000	0.058287  
414.500000	0.047378  
415.000000	0.044674  
415.500000	0.053500  
416.000000	0.065992  
416.500000	0.074803  
417.000000	0.077090  
417.500000	0.073749  
418.000000	0.070749  
418.500000	0.069348  
419.000000	0.068931  
419.500000	0.068189  
420.000000	0.068984  
420.500000	0.074795  
421.000000	0.081946  
421.500000	0.085121  
422.000000	0.080363  
422.500000	0.074560  
423.000000	0.070250  
423.500000	0.072901  
424.000000	0.077204  
424.500000	0.078522  
425.000000	0.074886  
425.500000	0.072946  
426.000000	0.071909  
426.500000	0.069166  
427.000000	0.067787  
427.500000	0.073098  
428.000000	0.078931  
428.500000	0.073878  
429.000000	0.061977  
429.500000	0.053886  
430.000000	0.052196  
430.500000	0.055962  
431.000000	0.060181  
431.500000	0.063128  
432.000000	0.064848  
432.500000	0.068204  
433.000000	0.071886  
433.500000	0.076553  
434.000000	0.079045  
434.500000	0.080371  
435.000000	0.075083  
435.500000	0.065628  
436.000000	0.057545  
436.500000	0.054909  
437.000000	0.054098  
437.500000	0.056545  
438.000000	0.061909  
438.500000	0.065681  
439.000000	0.064878  
439.500000	0.057121  
440.000000	0.050643  
440.500000	0.046750  
441.000000	0.045780  
441.500000	0.042333  
442.000000	0.041613  
442.500000	0.040060  
443.000000	0.042257  
443.500000	0.043469  
444.000000	0.048696  
444.500000	0.049734  
445.000000	0.052962  
445.500000	0.050196  
446.000000	0.048757  
446.500000	0.043484  
447.000000	0.041068  
447.500000	0.037712  
448.000000	0.037515  
448.500000	0.039772  
449.000000	0.044484  
449.500000	0.046333  
450.000000	0.045265  
450.500000	0.043840  
451.000000	0.042742  
451.500000	0.038977  
452.000000	0.033916  
452.500000	0.030015  
453.000000	0.028265  
453.500000	0.030227  
454.000000	0.032340  
454.500000	0.035181  
455.000000	0.034015  
455.500000	0.032689  
456.000000	0.027901  
456.500000	0.024795  
457.000000	0.022257  
457.500000	0.023530  
458.000000	0.026022  
458.500000	0.026901  
459.000000	0.024075  
459.500000	0.018795  
460.000000	0.016825  
460.500000	0.018378  
461.000000	0.020628  
461.500000	0.020106  
462.000000	0.020098  
462.500000	0.024386  
463.000000	0.028719  
463.500000	0.028151  
464.000000	0.021053  
464.500000	0.014833  
465.000000	0.012946  
465.500000	0.013242  
466.000000	0.010401  
466.500000	0.007242  
467.000000	0.008189  
467.500000	0.011727  
468.000000	0.012931  
468.500000	0.009962  
469.000000	0.006696  
469.500000	0.004659  
470.000000	0.003560  
470.500000	0.005098  
471.000000	0.011007  
471.500000	0.016280  
472.000000	0.016075  
472.500000	0.012075  
473.000000	0.009689  
473.500000	0.009530  
474.000000	0.010022  
474.500000	0.011931  
475.000000	0.014651  
475.500000	0.015886  
476.000000	0.012636  
476.500000	0.011189  
477.000000	0.013659  
477.500000	0.017121  
478.000000	0.014613  
478.500000	0.010962  
479.000000	0.009643  
479.500000	0.011477  
480.000000	0.011825  
480.500000	0.010477  
481.000000	0.009219  
481.500000	0.008780  
482.000000	0.007621  
482.500000	0.007772  
483.000000	0.007643  
483.500000	0.006303  
484.000000	0.005477  
484.500000	0.007090  
485.000000	0.010621  
485.500000	0.012424  
486.000000	0.011840  
486.500000	0.009946  
487.000000	0.010924  
487.500000	0.011780  
488.000000	0.012022  
488.500000	0.009401  
489.000000	0.007416  
489.500000	0.006151  
490.000000	0.005325  
490.500000	0.004204  
491.000000	0.003931  
491.500000	0.005007  
492.000000	0.006848  
492.500000	0.009136  
493.000000	0.009106  
493.500000	0.006863  
494.000000	0.004007  
494.500000	0.003045  
495.000000	0.003590  
495.500000	0.004643  
496.000000	0.004969  
496.500000	0.004234  
497.000000	0.003060  
497.500000	0.002219  
498.000000	0.001931  
498.500000	0.003818  
499.000000	0.005750  
499.500000	0.006409  
500.000000	0.004787  
500.500000	0.003583  
501.000000	0.003045  
501.500000	0.003030  
502.000000	0.002848  
502.500000	0.003954  
503.000000	0.005136  
503.500000	0.005386  
504.000000	0.004553  
504.500000	0.003749  
505.000000	0.002492  
505.500000	0.002477  
506.000000	0.003272  
506.500000	0.004030  
507.000000	0.003598  
507.500000	0.002212  
508.000000	0.002022  
508.500000	0.002909  
509.000000	0.004090  
509.500000	0.003287  
510.000000	0.002696  
510.500000	0.002628  
511.000000	0.004174  
511.500000	0.006431  
512.000000	0.008356  
512.500000	0.007977  
513.000000	0.005234  
513.500000	0.003378  
514.000000	0.005136  
514.500000	0.007545  
515.000000	0.008651  
515.500000	0.008189  
516.000000	0.007893  
516.500000	0.006113  
517.000000	0.004734  
517.500000	0.004280  
518.000000	0.006204  
518.500000	0.006787  
519.000000	0.005212  
519.500000	0.002863  
520.000000	0.001871  
520.500000	0.002318  
521.000000	0.002628  
521.500000	0.001659  
522.000000	0.000106  
522.500000	0.001462  
523.000000	0.003962  
523.500000	0.005780  
524.000000	0.005492  
524.500000	0.005045  
525.000000	0.004522  
525.500000	0.004151  
526.000000	0.003174  
526.500000	0.004439  
527.000000	0.005833  
527.500000	0.005636  
528.000000	0.003196  
528.500000	0.001848  
529.000000	0.001765  
529.500000	0.003106  
530.000000	0.003234  
530.500000	0.002643  
531.000000	0.001606  
531.500000	0.000803  
532.000000	0.001060  
532.500000	0.002734  
533.000000	0.004772  
533.500000	0.005507  
534.000000	0.005083  
534.500000	0.003840  
535.000000	0.002659  
535.500000	0.001075  
536.000000	-0.000068 
536.500000	0.000356  
537.000000	0.003075  
537.500000	0.005393  
538.000000	0.005106  
538.500000	0.002704  
539.000000	0.001416  
539.500000	0.002015  
540.000000	0.002621  
540.500000	0.001439  
541.000000	0.000166  
541.500000	-0.000015 
542.000000	0.000636  
542.500000	0.002121  
543.000000	0.003750  
543.500000	0.004628  
544.000000	0.003363  
544.500000	0.001727  
545.000000	0.001575  
545.500000	0.003090  
546.000000	0.004212  
546.500000	0.003393  
547.000000	0.001636  
547.500000	0.001295  
548.000000	0.002553  
548.500000	0.005507  
549.000000	0.007303  
549.500000	0.005507  
550.000000	-0.000000 

