PE FL                   SPECTRUM    ASCII       PEDS        1.60        
  -1
01#129.SP
02/03/17
01:32:01.00
02/03/17
01:33:51.00


410.000000
1









LS55
430.00
5.00
5.00
SCAN
1
20
100
100
0
100
0
0
0
1
7
ON
580 300 
1 0 0
#HDR
-1
-1
#GR
NM

0.00002384185791015625
0.0
240.000000
0.500000
341
8
0.954530
0.081537
#DATA
240.000000	0.160000 
240.500000	0.103371 
241.000000	0.081537 
241.500000	0.089719 
242.000000	0.106946 
242.500000	0.117037 
243.000000	0.128128 
243.500000	0.133159 
244.000000	0.137469 
244.500000	0.136083 
245.000000	0.134098 
245.500000	0.125280 
246.000000	0.122075 
246.500000	0.124560 
247.000000	0.135924 
247.500000	0.141712 
248.000000	0.142265 
248.500000	0.134462 
249.000000	0.126121 
249.500000	0.124212 
250.000000	0.128810 
250.500000	0.127121 
251.000000	0.114803 
251.500000	0.112030 
252.000000	0.123007 
252.500000	0.129242 
253.000000	0.121303 
253.500000	0.114318 
254.000000	0.113590 
254.500000	0.119704 
255.000000	0.123750 
255.500000	0.132325 
256.000000	0.149515 
256.500000	0.164325 
257.000000	0.174840 
257.500000	0.175810 
258.000000	0.181757 
258.500000	0.188992 
259.000000	0.197136 
259.500000	0.200454 
260.000000	0.210060 
260.500000	0.216310 
261.000000	0.206780 
261.500000	0.192272 
262.000000	0.182909 
262.500000	0.186825 
263.000000	0.186340 
263.500000	0.178553 
264.000000	0.168969 
264.500000	0.171598 
265.000000	0.188045 
265.500000	0.196143 
266.000000	0.191636 
266.500000	0.196583 
267.000000	0.219590 
267.500000	0.230689 
268.000000	0.218484 
268.500000	0.205469 
269.000000	0.219954 
269.500000	0.237030 
270.000000	0.236825 
270.500000	0.229340 
271.000000	0.243242 
271.500000	0.261234 
272.000000	0.263015 
272.500000	0.247575 
273.000000	0.244060 
273.500000	0.250469 
274.000000	0.252439 
274.500000	0.239871 
275.000000	0.233719 
275.500000	0.236674 
276.000000	0.243022 
276.500000	0.246946 
277.000000	0.256931 
277.500000	0.272060 
278.000000	0.277053 
278.500000	0.274659 
279.000000	0.265439 
279.500000	0.263833 
280.000000	0.257696 
280.500000	0.254022 
281.000000	0.250946 
281.500000	0.255992 
282.000000	0.257219 
282.500000	0.249098 
283.000000	0.237393 
283.500000	0.231113 
284.000000	0.236053 
284.500000	0.235931 
285.000000	0.236727 
285.500000	0.234871 
286.000000	0.232484 
286.500000	0.221810 
287.000000	0.215757 
287.500000	0.221469 
288.000000	0.232219 
288.500000	0.236431 
289.000000	0.234060 
289.500000	0.233393 
290.000000	0.229166 
290.500000	0.219371 
291.000000	0.201719 
291.500000	0.193598 
292.000000	0.198469 
292.500000	0.212060 
293.000000	0.216893 
293.500000	0.220734 
294.000000	0.226651 
294.500000	0.234651 
295.000000	0.234522 
295.500000	0.231992 
296.000000	0.235848 
296.500000	0.246340 
297.000000	0.256787 
297.500000	0.270856 
298.000000	0.295219 
298.500000	0.324643 
299.000000	0.356007 
299.500000	0.388787 
300.000000	0.426083 
300.500000	0.464325 
301.000000	0.491734 
301.500000	0.520840 
302.000000	0.560174 
302.500000	0.621818 
303.000000	0.687454 
303.500000	0.748159 
304.000000	0.784886 
304.500000	0.813568 
305.000000	0.836757 
305.500000	0.854030 
306.000000	0.868704 
306.500000	0.889606 
307.000000	0.923575 
307.500000	0.948348 
308.000000	0.954530 
308.500000	0.942151 
309.000000	0.933204 
309.500000	0.924893 
310.000000	0.917545 
310.500000	0.905871 
311.000000	0.897856 
311.500000	0.879356 
312.000000	0.860015 
312.500000	0.835439 
313.000000	0.822636 
313.500000	0.807530 
314.000000	0.791060 
314.500000	0.768681 
315.000000	0.759022 
315.500000	0.742992 
316.000000	0.714916 
316.500000	0.676772 
317.000000	0.648954 
317.500000	0.641242 
318.000000	0.644378 
318.500000	0.645749 
319.000000	0.632022 
319.500000	0.611712 
320.000000	0.583598 
320.500000	0.561893 
321.000000	0.536916 
321.500000	0.516189 
322.000000	0.501515 
322.500000	0.492787 
323.000000	0.481765 
323.500000	0.468606 
324.000000	0.464234 
324.500000	0.470969 
325.000000	0.475363 
325.500000	0.475909 
326.000000	0.473287 
326.500000	0.475204 
327.000000	0.469787 
327.500000	0.469916 
328.000000	0.472431 
328.500000	0.476795 
329.000000	0.468878 
329.500000	0.460659 
330.000000	0.463159 
330.500000	0.470984 
331.000000	0.471772 
331.500000	0.461833 
332.000000	0.450840 
332.500000	0.448689 
333.000000	0.460909 
333.500000	0.479871 
334.000000	0.488780 
334.500000	0.482931 
335.000000	0.474856 
335.500000	0.481439 
336.000000	0.496931 
336.500000	0.505189 
337.000000	0.501545 
337.500000	0.500893 
338.000000	0.504833 
338.500000	0.508696 
339.000000	0.509159 
339.500000	0.520174 
340.000000	0.539166 
340.500000	0.557787 
341.000000	0.563795 
341.500000	0.567621 
342.000000	0.573909 
342.500000	0.583477 
343.000000	0.589628 
343.500000	0.586742 
344.000000	0.574469 
344.500000	0.561007 
345.000000	0.558689 
345.500000	0.568727 
346.000000	0.586007 
346.500000	0.595143 
347.000000	0.596462 
347.500000	0.597083 
348.000000	0.609719 
348.500000	0.631659 
349.000000	0.655666 
349.500000	0.674560 
350.000000	0.678553 
350.500000	0.665787 
351.000000	0.641045 
351.500000	0.634780 
352.000000	0.646560 
352.500000	0.666310 
353.000000	0.666969 
353.500000	0.660030 
354.000000	0.657234 
354.500000	0.670151 
355.000000	0.690636 
355.500000	0.701939 
356.000000	0.706015 
356.500000	0.704431 
357.000000	0.709431 
357.500000	0.708499 
358.000000	0.718257 
358.500000	0.724227 
359.000000	0.727469 
359.500000	0.712856 
360.000000	0.710515 
360.500000	0.724136 
361.000000	0.751628 
361.500000	0.757515 
362.000000	0.748265 
362.500000	0.733075 
363.000000	0.735628 
363.500000	0.755128 
364.000000	0.778924 
364.500000	0.781083 
365.000000	0.768651 
365.500000	0.756666 
366.000000	0.762166 
366.500000	0.769598 
367.000000	0.772075 
367.500000	0.770181 
368.000000	0.775393 
368.500000	0.779446 
369.000000	0.779340 
369.500000	0.772090 
370.000000	0.761151 
370.500000	0.756848 
371.000000	0.754856 
371.500000	0.751303 
372.000000	0.741818 
372.500000	0.737840 
373.000000	0.745916 
373.500000	0.754219 
374.000000	0.757181 
374.500000	0.752333 
375.000000	0.743409 
375.500000	0.726606 
376.000000	0.716666 
376.500000	0.718318 
377.000000	0.727136 
377.500000	0.731598 
378.000000	0.729143 
378.500000	0.725598 
379.000000	0.719356 
379.500000	0.711537 
380.000000	0.705053 
380.500000	0.695856 
381.000000	0.688068 
381.500000	0.685674 
382.000000	0.685954 
382.500000	0.678522 
383.000000	0.667871 
383.500000	0.669098 
384.000000	0.679166 
384.500000	0.679068 
385.000000	0.658575 
385.500000	0.633696 
386.000000	0.618219 
386.500000	0.616575 
387.000000	0.625212 
387.500000	0.628833 
388.000000	0.620257 
388.500000	0.604325 
389.000000	0.591393 
389.500000	0.593856 
390.000000	0.599818 
390.500000	0.603121 
391.000000	0.599583 
391.500000	0.599522 
392.000000	0.590189 
392.500000	0.567196 
393.000000	0.548409 
393.500000	0.553340 
394.000000	0.571166 
394.500000	0.573613 
395.000000	0.565212 
395.500000	0.565098 
396.000000	0.572045 
396.500000	0.576772 
397.000000	0.571371 
397.500000	0.564954 
398.000000	0.558750 
398.500000	0.558636 
399.000000	0.555272 
399.500000	0.548750 
400.000000	0.545909 
400.500000	0.540856 
401.000000	0.530439 
401.500000	0.516484 
402.000000	0.521765 
402.500000	0.533560 
403.000000	0.541446 
403.500000	0.525363 
404.000000	0.508810 
404.500000	0.500393 
405.000000	0.510878 
405.500000	0.518462 
406.000000	0.517651 
406.500000	0.516022 
407.000000	0.529643 
407.500000	0.549075 
408.000000	0.553083 
408.500000	0.551878 
409.000000	0.550575 
409.500000	0.537962 
410.000000	0.503000 

