PE FL                   SPECTRUM    ASCII       PEDS        1.60        
  -1
01#150.SP
02/03/17
03:25:39.00
02/03/17
03:28:20.00


580.000000
1









LS55
310.00
5.00
5.00
SCAN
1
20
100
100
0
100
0
1
0
1
7
ON
580 310 
1 0 0
#HDR
-1
-1
#GR
NM

0.00002384185791015625
0.0
330.000000
0.500000
501
8
7.381121
0.280000
#DATA
330.000000	1.270000 
330.500000	1.436212 
331.000000	1.535022 
331.500000	1.576507 
332.000000	1.594750 
332.500000	1.628878 
333.000000	1.674454 
333.500000	1.740371 
334.000000	1.802030 
334.500000	1.839696 
335.000000	1.857484 
335.500000	1.892545 
336.000000	1.965500 
336.500000	2.046909 
337.000000	2.111159 
337.500000	2.148598 
338.000000	2.171295 
338.500000	2.208954 
339.000000	2.265553 
339.500000	2.335939 
340.000000	2.394734 
340.500000	2.452174 
341.000000	2.498530 
341.500000	2.555090 
342.000000	2.631765 
342.500000	2.723803 
343.000000	2.799113 
343.500000	2.827159 
344.000000	2.841204 
344.500000	2.889242 
345.000000	2.994780 
345.500000	3.098015 
346.000000	3.154166 
346.500000	3.154909 
347.000000	3.172098 
347.500000	3.244704 
348.000000	3.354227 
348.500000	3.441371 
349.000000	3.486924 
349.500000	3.500856 
350.000000	3.528810 
350.500000	3.588227 
351.000000	3.645795 
351.500000	3.686030 
352.000000	3.710787 
352.500000	3.758651 
353.000000	3.835848 
353.500000	3.920037 
354.000000	3.982189 
354.500000	4.021068 
355.000000	4.072545 
355.500000	4.139553 
356.000000	4.215303 
356.500000	4.255810 
357.000000	4.257628 
357.500000	4.265045 
358.000000	4.297424 
358.500000	4.360636 
359.000000	4.384795 
359.500000	4.391712 
360.000000	4.370810 
360.500000	4.387537 
361.000000	4.420363 
361.500000	4.480113 
362.000000	4.529674 
362.500000	4.563636 
363.000000	4.591704 
363.500000	4.616098 
364.000000	4.647825 
364.500000	4.668825 
365.000000	4.712999 
365.500000	4.745204 
366.000000	4.765000 
366.500000	4.751007 
367.000000	4.759431 
367.500000	4.801689 
368.000000	4.869045 
368.500000	4.893545 
369.000000	4.890575 
369.500000	4.908333 
370.000000	4.970174 
370.500000	5.030007 
371.000000	5.059893 
371.500000	5.070310 
372.000000	5.092818 
372.500000	5.142886 
373.000000	5.207909 
373.500000	5.280621 
374.000000	5.322780 
374.500000	5.351166 
375.000000	5.370621 
375.500000	5.431151 
376.000000	5.484136 
376.500000	5.533401 
377.000000	5.536189 
377.500000	5.570454 
378.000000	5.627348 
378.500000	5.716530 
379.000000	5.778856 
379.500000	5.805015 
380.000000	5.819106 
380.500000	5.847340 
381.000000	5.930121 
381.500000	5.998931 
382.000000	6.058924 
382.500000	6.085098 
383.000000	6.132507 
383.500000	6.160575 
384.000000	6.188295 
384.500000	6.212439 
385.000000	6.255287 
385.500000	6.306643 
386.000000	6.363181 
386.500000	6.421378 
387.000000	6.485446 
387.500000	6.523136 
388.000000	6.520340 
388.500000	6.510257 
389.000000	6.549424 
389.500000	6.628916 
390.000000	6.693848 
390.500000	6.714939 
391.000000	6.733159 
391.500000	6.766893 
392.000000	6.799825 
392.500000	6.831189 
393.000000	6.861886 
393.500000	6.886477 
394.000000	6.909939 
394.500000	6.942363 
395.000000	6.967045 
395.500000	6.989825 
396.000000	7.011113 
396.500000	7.050727 
397.000000	7.072022 
397.500000	7.060227 
398.000000	7.058636 
398.500000	7.078969 
399.000000	7.104840 
399.500000	7.104522 
400.000000	7.121522 
400.500000	7.179469 
401.000000	7.236454 
401.500000	7.257136 
402.000000	7.242204 
402.500000	7.249303 
403.000000	7.278689 
403.500000	7.307348 
404.000000	7.285272 
404.500000	7.249181 
405.000000	7.263053 
405.500000	7.328636 
406.000000	7.371060 
406.500000	7.350727 
407.000000	7.313939 
407.500000	7.307409 
408.000000	7.313787 
408.500000	7.320893 
409.000000	7.301840 
409.500000	7.291810 
410.000000	7.282568 
410.500000	7.282946 
411.000000	7.274439 
411.500000	7.278689 
412.000000	7.316318 
412.500000	7.367500 
413.000000	7.347909 
413.500000	7.286666 
414.000000	7.277704 
414.500000	7.333962 
415.000000	7.381121 
415.500000	7.335583 
416.000000	7.279492 
416.500000	7.245196 
417.000000	7.262916 
417.500000	7.274704 
418.000000	7.299356 
418.500000	7.267196 
419.000000	7.204772 
419.500000	7.165401 
420.000000	7.192022 
420.500000	7.271628 
421.000000	7.273515 
421.500000	7.228553 
422.000000	7.157121 
422.500000	7.154590 
423.000000	7.157454 
423.500000	7.153787 
424.000000	7.090500 
424.500000	7.013818 
425.000000	6.956204 
425.500000	6.948886 
426.000000	6.983742 
426.500000	6.995954 
427.000000	6.991143 
427.500000	6.958174 
428.000000	6.918583 
428.500000	6.841484 
429.000000	6.773363 
429.500000	6.739810 
430.000000	6.735462 
430.500000	6.718424 
431.000000	6.680462 
431.500000	6.642803 
432.000000	6.619318 
432.500000	6.598598 
433.000000	6.544704 
433.500000	6.465371 
434.000000	6.401575 
434.500000	6.361075 
435.000000	6.317409 
435.500000	6.259159 
436.000000	6.222060 
436.500000	6.216780 
437.000000	6.192045 
437.500000	6.133696 
438.000000	6.073825 
438.500000	6.055560 
439.000000	6.028499 
439.500000	5.960757 
440.000000	5.871401 
440.500000	5.799257 
441.000000	5.777416 
441.500000	5.782265 
442.000000	5.784204 
442.500000	5.736772 
443.000000	5.679749 
443.500000	5.617166 
444.000000	5.585500 
444.500000	5.522507 
445.000000	5.452628 
445.500000	5.374136 
446.000000	5.320166 
446.500000	5.271863 
447.000000	5.246742 
447.500000	5.206045 
448.000000	5.139159 
448.500000	5.041386 
449.000000	4.990530 
449.500000	4.965787 
450.000000	4.937265 
450.500000	4.848007 
451.000000	4.770689 
451.500000	4.741196 
452.000000	4.755196 
452.500000	4.727833 
453.000000	4.630121 
453.500000	4.523159 
454.000000	4.445250 
454.500000	4.440363 
455.000000	4.445568 
455.500000	4.423196 
456.000000	4.358060 
456.500000	4.290613 
457.000000	4.226954 
457.500000	4.152825 
458.000000	4.079742 
458.500000	4.012780 
459.000000	4.010939 
459.500000	4.035431 
460.000000	4.039500 
460.500000	3.952734 
461.000000	3.817083 
461.500000	3.695393 
462.000000	3.656015 
462.500000	3.654333 
463.000000	3.645272 
463.500000	3.603681 
464.000000	3.557075 
464.500000	3.536174 
465.000000	3.541136 
465.500000	3.535045 
466.000000	3.486484 
466.500000	3.398962 
467.000000	3.297090 
467.500000	3.240166 
468.000000	3.219681 
468.500000	3.224621 
469.000000	3.207674 
469.500000	3.176060 
470.000000	3.109227 
470.500000	3.056424 
471.000000	3.023909 
471.500000	3.005371 
472.000000	2.967977 
472.500000	2.934780 
473.000000	2.938431 
473.500000	2.947704 
474.000000	2.922560 
474.500000	2.866545 
475.000000	2.830492 
475.500000	2.812386 
476.000000	2.783575 
476.500000	2.721984 
477.000000	2.674075 
477.500000	2.669674 
478.000000	2.677848 
478.500000	2.645893 
479.000000	2.596909 
479.500000	2.561446 
480.000000	2.541159 
480.500000	2.518098 
481.000000	2.498386 
481.500000	2.519045 
482.000000	2.535499 
482.500000	2.533325 
483.000000	2.487159 
483.500000	2.469424 
484.000000	2.464159 
484.500000	2.459916 
485.000000	2.402022 
485.500000	2.329643 
486.000000	2.275530 
486.500000	2.260537 
487.000000	2.272007 
487.500000	2.278234 
488.000000	2.264575 
488.500000	2.228371 
489.000000	2.192765 
489.500000	2.164909 
490.000000	2.123946 
490.500000	2.081560 
491.000000	2.050515 
491.500000	2.038015 
492.000000	2.020469 
492.500000	2.000977 
493.000000	1.984045 
493.500000	1.964507 
494.000000	1.935446 
494.500000	1.908613 
495.000000	1.893113 
495.500000	1.859189 
496.000000	1.815151 
496.500000	1.789689 
497.000000	1.786196 
497.500000	1.788143 
498.000000	1.775568 
498.500000	1.765007 
499.000000	1.743431 
499.500000	1.730121 
500.000000	1.717568 
500.500000	1.712454 
501.000000	1.681303 
501.500000	1.645674 
502.000000	1.632325 
502.500000	1.626053 
503.000000	1.595446 
503.500000	1.546765 
504.000000	1.529863 
504.500000	1.529181 
505.000000	1.524606 
505.500000	1.508045 
506.000000	1.500174 
506.500000	1.489166 
507.000000	1.469310 
507.500000	1.439825 
508.000000	1.404613 
508.500000	1.369765 
509.000000	1.347174 
509.500000	1.360643 
510.000000	1.372507 
510.500000	1.365681 
511.000000	1.329507 
511.500000	1.307545 
512.000000	1.300689 
512.500000	1.312189 
513.000000	1.296318 
513.500000	1.266946 
514.000000	1.234121 
514.500000	1.229856 
515.000000	1.227568 
515.500000	1.220409 
516.000000	1.198916 
516.500000	1.182060 
517.000000	1.164166 
517.500000	1.149000 
518.000000	1.122803 
518.500000	1.106636 
519.000000	1.103871 
519.500000	1.107303 
520.000000	1.093128 
520.500000	1.080363 
521.000000	1.073189 
521.500000	1.081204 
522.000000	1.067750 
522.500000	1.038159 
523.000000	1.007946 
523.500000	0.992272 
524.000000	0.990053 
524.500000	0.978780 
525.000000	0.954022 
525.500000	0.923242 
526.000000	0.915795 
526.500000	0.913886 
527.000000	0.909030 
527.500000	0.893636 
528.000000	0.889257 
528.500000	0.892500 
529.000000	0.895083 
529.500000	0.884128 
530.000000	0.878909 
530.500000	0.875484 
531.000000	0.875106 
531.500000	0.867325 
532.000000	0.854969 
532.500000	0.827787 
533.000000	0.803924 
533.500000	0.790166 
534.000000	0.798878 
534.500000	0.795795 
535.000000	0.783159 
535.500000	0.763575 
536.000000	0.762181 
536.500000	0.753484 
537.000000	0.739181 
537.500000	0.718666 
538.000000	0.711901 
538.500000	0.717242 
539.000000	0.715765 
539.500000	0.703674 
540.000000	0.693303 
540.500000	0.690401 
541.000000	0.687469 
541.500000	0.674128 
542.000000	0.666992 
542.500000	0.657575 
543.000000	0.657250 
543.500000	0.655772 
544.000000	0.657863 
544.500000	0.637181 
545.000000	0.609924 
545.500000	0.595469 
546.000000	0.600204 
546.500000	0.603742 
547.000000	0.593878 
547.500000	0.581462 
548.000000	0.568098 
548.500000	0.558787 
549.000000	0.550818 
549.500000	0.547022 
550.000000	0.548295 
550.500000	0.552553 
551.000000	0.545015 
551.500000	0.523151 
552.000000	0.506416 
552.500000	0.503401 
553.000000	0.505901 
553.500000	0.505537 
554.000000	0.502015 
554.500000	0.505765 
555.000000	0.507454 
555.500000	0.506916 
556.000000	0.497348 
556.500000	0.487121 
557.000000	0.473075 
557.500000	0.463969 
558.000000	0.459136 
558.500000	0.458045 
559.000000	0.458810 
559.500000	0.451303 
560.000000	0.445651 
560.500000	0.443143 
561.000000	0.445136 
561.500000	0.445121 
562.000000	0.444575 
562.500000	0.438749 
563.000000	0.432553 
563.500000	0.428462 
564.000000	0.423393 
564.500000	0.414643 
565.000000	0.405742 
565.500000	0.403537 
566.000000	0.408409 
566.500000	0.404643 
567.000000	0.396015 
567.500000	0.389560 
568.000000	0.388689 
568.500000	0.390462 
569.000000	0.387825 
569.500000	0.384825 
570.000000	0.383659 
570.500000	0.384750 
571.000000	0.376507 
571.500000	0.362007 
572.000000	0.345575 
572.500000	0.340484 
573.000000	0.346181 
573.500000	0.352636 
574.000000	0.359000 
574.500000	0.364053 
575.000000	0.360734 
575.500000	0.347015 
576.000000	0.331727 
576.500000	0.330106 
577.000000	0.338393 
577.500000	0.343022 
578.000000	0.337977 
578.500000	0.334871 
579.000000	0.332196 
579.500000	0.315204 
580.000000	0.280000 

