PE FL                   SPECTRUM    ASCII       PEDS        1.60        
  -1
01#155.SP
02/03/17
03:51:59.00
02/03/17
03:56:17.00


650.000000
1









LS55
300.00
5.00
5.00
SCAN
1
20
100
100
0
100
0
1
0
1
7
ON
700 300 
1 0 0
#HDR
-1
-1
#GR
NM

0.00002384185791015625
0.0
250.000000
0.500000
801
8
10.652560
-0.000886
#DATA
250.000000	0.000000  
250.500000	0.000000  
251.000000	0.000000  
251.500000	0.000000  
252.000000	0.000000  
252.500000	0.000000  
253.000000	0.000000  
253.500000	0.000000  
254.000000	0.000000  
254.500000	0.000000  
255.000000	0.000000  
255.500000	0.000000  
256.000000	0.000000  
256.500000	0.000000  
257.000000	0.000000  
257.500000	0.000000  
258.000000	0.000000  
258.500000	0.000000  
259.000000	0.000000  
259.500000	0.000000  
260.000000	0.000000  
260.500000	0.000000  
261.000000	0.000000  
261.500000	0.000000  
262.000000	0.000000  
262.500000	-0.000060 
263.000000	-0.000053 
263.500000	0.000409  
264.000000	0.000984  
264.500000	0.001151  
265.000000	0.000613  
265.500000	0.000075  
266.000000	-0.000121 
266.500000	0.000000  
267.000000	0.000000  
267.500000	0.000000  
268.000000	0.000000  
268.500000	0.000000  
269.000000	-0.000060 
269.500000	-0.000053 
270.000000	0.000409  
270.500000	0.000984  
271.000000	0.001151  
271.500000	0.000553  
272.000000	0.000022  
272.500000	0.000287  
273.000000	0.000863  
273.500000	0.000984  
274.000000	0.001500  
274.500000	0.002318  
275.000000	0.002621  
275.500000	0.001500  
276.000000	0.000219  
276.500000	-0.000303 
277.000000	0.000000  
277.500000	0.000000  
278.000000	0.000000  
278.500000	-0.000060 
279.000000	-0.000053 
279.500000	0.000409  
280.000000	0.000984  
280.500000	0.001151  
281.000000	0.000613  
281.500000	0.000075  
282.000000	-0.000181 
282.500000	-0.000053 
283.000000	0.000409  
283.500000	0.000984  
284.000000	0.001151  
284.500000	0.000613  
285.000000	0.000075  
285.500000	-0.000181 
286.000000	-0.000053 
286.500000	0.000409  
287.000000	0.000984  
287.500000	0.001151  
288.000000	0.000613  
288.500000	0.000075  
289.000000	-0.000121 
289.500000	-0.000181 
290.000000	-0.000886 
290.500000	-0.000257 
291.000000	0.006515  
291.500000	0.014712  
292.000000	0.027045  
292.500000	0.052181  
293.000000	0.111977  
293.500000	0.217159  
294.000000	0.357030  
294.500000	0.534265  
295.000000	0.757295  
295.500000	1.069515  
296.000000	1.484477  
296.500000	2.030090  
297.000000	2.686757  
297.500000	3.421409  
298.000000	4.166310  
298.500000	4.879424  
299.000000	5.584992  
299.500000	6.287583  
300.000000	6.961871  
300.500000	7.475583  
301.000000	7.808424  
301.500000	7.935007  
302.000000	7.901409  
302.500000	7.686007  
303.000000	7.314621  
303.500000	6.791871  
304.000000	6.160265  
304.500000	5.455871  
305.000000	4.731424  
305.500000	4.050128  
306.000000	3.424431  
306.500000	2.898446  
307.000000	2.467962  
307.500000	2.143500  
308.000000	1.887757  
308.500000	1.730780  
309.000000	1.671787  
309.500000	1.721500  
310.000000	1.842181  
310.500000	2.015030  
311.000000	2.213537  
311.500000	2.419727  
312.000000	2.627007  
312.500000	2.818083  
313.000000	2.985462  
313.500000	3.127969  
314.000000	3.268719  
314.500000	3.439916  
315.000000	3.612871  
315.500000	3.761128  
316.000000	3.858886  
316.500000	3.955931  
317.000000	4.081166  
317.500000	4.231469  
318.000000	4.351121  
318.500000	4.453356  
319.000000	4.558803  
319.500000	4.670439  
320.000000	4.768666  
320.500000	4.840416  
321.000000	4.906272  
321.500000	4.972454  
322.000000	5.061333  
322.500000	5.114242  
323.000000	5.135515  
323.500000	5.170325  
324.000000	5.267280  
324.500000	5.387742  
325.000000	5.477431  
325.500000	5.533636  
326.000000	5.551106  
326.500000	5.544462  
327.000000	5.522757  
327.500000	5.569893  
328.000000	5.672477  
328.500000	5.774840  
329.000000	5.816848  
329.500000	5.838424  
330.000000	5.855196  
330.500000	5.858000  
331.000000	5.831560  
331.500000	5.828636  
332.000000	5.870037  
332.500000	5.900325  
333.000000	5.907621  
333.500000	5.897212  
334.000000	5.929689  
334.500000	5.960409  
335.000000	6.023613  
335.500000	6.069992  
336.000000	6.085477  
336.500000	6.066189  
337.000000	6.054628  
337.500000	6.047371  
338.000000	6.023303  
338.500000	6.016090  
339.000000	6.033477  
339.500000	6.066590  
340.000000	6.045492  
340.500000	6.017984  
341.000000	6.043560  
341.500000	6.115499  
342.000000	6.138242  
342.500000	6.080613  
343.000000	5.986681  
343.500000	5.939878  
344.000000	5.911977  
344.500000	5.899954  
345.000000	5.899318  
345.500000	5.909348  
346.000000	5.904787  
346.500000	5.898477  
347.000000	5.877462  
347.500000	5.830356  
348.000000	5.790719  
348.500000	5.784613  
349.000000	5.769446  
349.500000	5.676287  
350.000000	5.560969  
350.500000	5.486378  
351.000000	5.457901  
351.500000	5.418818  
352.000000	5.389280  
352.500000	5.360977  
353.000000	5.340545  
353.500000	5.288431  
354.000000	5.260598  
354.500000	5.217886  
355.000000	5.177992  
355.500000	5.096636  
356.000000	5.047628  
356.500000	4.998439  
357.000000	4.973962  
357.500000	4.906916  
358.000000	4.861045  
358.500000	4.816886  
359.000000	4.777265  
359.500000	4.730409  
360.000000	4.692878  
360.500000	4.655962  
361.000000	4.600848  
361.500000	4.567787  
362.000000	4.561469  
362.500000	4.556734  
363.000000	4.509500  
363.500000	4.420742  
364.000000	4.332780  
364.500000	4.252280  
365.000000	4.214454  
365.500000	4.191257  
366.000000	4.179962  
366.500000	4.163818  
367.000000	4.168628  
367.500000	4.172090  
368.000000	4.142333  
368.500000	4.082742  
369.000000	4.024181  
369.500000	3.996939  
370.000000	3.986969  
370.500000	3.980454  
371.000000	3.976522  
371.500000	3.980022  
372.000000	3.969287  
372.500000	3.933386  
373.000000	3.918340  
373.500000	3.925371  
374.000000	3.931840  
374.500000	3.894106  
375.000000	3.856628  
375.500000	3.842022  
376.000000	3.861734  
376.500000	3.851530  
377.000000	3.821333  
377.500000	3.789901  
378.000000	3.804598  
378.500000	3.846386  
379.000000	3.882098  
379.500000	3.880492  
380.000000	3.869234  
380.500000	3.862909  
381.000000	3.875992  
381.500000	3.885151  
382.000000	3.872606  
382.500000	3.852871  
383.000000	3.860424  
383.500000	3.884113  
384.000000	3.908659  
384.500000	3.924765  
385.000000	3.919007  
385.500000	3.878166  
386.000000	3.851757  
386.500000	3.904363  
387.000000	4.009068  
387.500000	4.047053  
388.000000	4.012689  
388.500000	3.996545  
389.000000	4.038818  
389.500000	4.077106  
390.000000	4.085606  
390.500000	4.088030  
391.000000	4.082772  
391.500000	4.062568  
392.000000	4.056901  
392.500000	4.088401  
393.000000	4.122068  
393.500000	4.117962  
394.000000	4.105643  
394.500000	4.108659  
395.000000	4.117030  
395.500000	4.102818  
396.000000	4.084136  
396.500000	4.061954  
397.000000	4.051234  
397.500000	4.068946  
398.000000	4.125431  
398.500000	4.155113  
399.000000	4.121106  
399.500000	4.047954  
400.000000	4.030371  
400.500000	4.094916  
401.000000	4.184530  
401.500000	4.201234  
402.000000	4.161553  
402.500000	4.136280  
403.000000	4.163128  
403.500000	4.207227  
404.000000	4.224484  
404.500000	4.229628  
405.000000	4.255999  
405.500000	4.297666  
406.000000	4.316659  
406.500000	4.321590  
407.000000	4.316621  
407.500000	4.319666  
408.000000	4.321371  
408.500000	4.316333  
409.000000	4.315643  
409.500000	4.326643  
410.000000	4.318863  
410.500000	4.288901  
411.000000	4.278000  
411.500000	4.288628  
412.000000	4.334348  
412.500000	4.378030  
413.000000	4.394121  
413.500000	4.373090  
414.000000	4.375780  
414.500000	4.393287  
415.000000	4.386939  
415.500000	4.340409  
416.000000	4.333219  
416.500000	4.367818  
417.000000	4.382621  
417.500000	4.340575  
418.000000	4.316780  
418.500000	4.337893  
419.000000	4.384719  
419.500000	4.415924  
420.000000	4.431803  
420.500000	4.425530  
421.000000	4.399613  
421.500000	4.375636  
422.000000	4.371500  
422.500000	4.383227  
423.000000	4.370356  
423.500000	4.308446  
424.000000	4.239340  
424.500000	4.199553  
425.000000	4.200886  
425.500000	4.223196  
426.000000	4.248977  
426.500000	4.256560  
427.000000	4.213568  
427.500000	4.155333  
428.000000	4.120121  
428.500000	4.159696  
429.000000	4.190196  
429.500000	4.201924  
430.000000	4.152598  
430.500000	4.109249  
431.000000	4.059818  
431.500000	4.029409  
432.000000	4.005507  
432.500000	4.010704  
433.000000	4.018295  
433.500000	4.025590  
434.000000	4.001030  
434.500000	3.953909  
435.000000	3.910651  
435.500000	3.900742  
436.000000	3.905939  
436.500000	3.915356  
437.000000	3.897060  
437.500000	3.858121  
438.000000	3.795507  
438.500000	3.747750  
439.000000	3.731446  
439.500000	3.745757  
440.000000	3.727719  
440.500000	3.692022  
441.000000	3.621431  
441.500000	3.587946  
442.000000	3.562280  
442.500000	3.575537  
443.000000	3.551143  
443.500000	3.522113  
444.000000	3.449719  
444.500000	3.408386  
445.000000	3.378583  
445.500000	3.379310  
446.000000	3.375537  
446.500000	3.360583  
447.000000	3.320825  
447.500000	3.279234  
448.000000	3.266219  
448.500000	3.259901  
449.000000	3.216598  
449.500000	3.146568  
450.000000	3.094772  
450.500000	3.087143  
451.000000	3.088689  
451.500000	3.078462  
452.000000	3.066856  
452.500000	3.060515  
453.000000	3.035000  
453.500000	2.984363  
454.000000	2.942257  
454.500000	2.930477  
455.000000	2.937643  
455.500000	2.903621  
456.000000	2.823287  
456.500000	2.768151  
457.000000	2.755583  
457.500000	2.766795  
458.000000	2.765568  
458.500000	2.750840  
459.000000	2.714901  
459.500000	2.662053  
460.000000	2.595083  
460.500000	2.563166  
461.000000	2.571803  
461.500000	2.598553  
462.000000	2.596000  
462.500000	2.551871  
463.000000	2.482348  
463.500000	2.430886  
464.000000	2.404719  
464.500000	2.398500  
465.000000	2.404621  
465.500000	2.400242  
466.000000	2.388598  
466.500000	2.356916  
467.000000	2.324128  
467.500000	2.266765  
468.000000	2.204719  
468.500000	2.159121  
469.000000	2.168075  
469.500000	2.187969  
470.000000	2.181356  
470.500000	2.138840  
471.000000	2.103795  
471.500000	2.091636  
472.000000	2.081378  
472.500000	2.071121  
473.000000	2.057257  
473.500000	2.062174  
474.000000	2.063212  
474.500000	2.063212  
475.000000	2.049818  
475.500000	2.039575  
476.000000	2.020659  
476.500000	2.001393  
477.000000	1.977310  
477.500000	1.946280  
478.000000	1.922613  
478.500000	1.919098  
479.000000	1.942954  
479.500000	1.956083  
480.000000	1.941219  
480.500000	1.908242  
481.000000	1.894477  
481.500000	1.884068  
482.000000	1.878757  
482.500000	1.868977  
483.000000	1.867537  
483.500000	1.868477  
484.000000	1.879121  
484.500000	1.884651  
485.000000	1.872598  
485.500000	1.849477  
486.000000	1.812045  
486.500000	1.773022  
487.000000	1.729053  
487.500000	1.709878  
488.000000	1.715166  
488.500000	1.708083  
489.000000	1.693257  
489.500000	1.669954  
490.000000	1.665583  
490.500000	1.633613  
491.000000	1.607681  
491.500000	1.582250  
492.000000	1.580909  
492.500000	1.558674  
493.000000	1.522621  
493.500000	1.492287  
494.000000	1.482000  
494.500000	1.497977  
495.000000	1.503560  
495.500000	1.494719  
496.000000	1.463287  
496.500000	1.455484  
497.000000	1.477977  
497.500000	1.502189  
498.000000	1.480295  
498.500000	1.419780  
499.000000	1.354704  
499.500000	1.322621  
500.000000	1.310818  
500.500000	1.308212  
501.000000	1.294333  
501.500000	1.280772  
502.000000	1.261803  
502.500000	1.259363  
503.000000	1.252810  
503.500000	1.246666  
504.000000	1.234689  
504.500000	1.235454  
505.000000	1.241098  
505.500000	1.257287  
506.000000	1.254803  
506.500000	1.238030  
507.000000	1.202454  
507.500000	1.178348  
508.000000	1.159674  
508.500000	1.149628  
509.000000	1.129795  
509.500000	1.112484  
510.000000	1.105159  
510.500000	1.104742  
511.000000	1.102795  
511.500000	1.088621  
512.000000	1.066272  
512.500000	1.050803  
513.000000	1.058446  
513.500000	1.062212  
514.000000	1.057606  
514.500000	1.033651  
515.000000	1.018098  
515.500000	1.004106  
516.000000	1.004537  
516.500000	0.998742  
517.000000	0.988393  
517.500000	0.966954  
518.000000	0.949083  
518.500000	0.932159  
519.000000	0.914742  
519.500000	0.913871  
520.000000	0.940295  
520.500000	0.969348  
521.000000	0.970348  
521.500000	0.947878  
522.000000	0.922212  
522.500000	0.891386  
523.000000	0.867234  
523.500000	0.865265  
524.000000	0.885340  
524.500000	0.889962  
525.000000	0.869136  
525.500000	0.855901  
526.000000	0.858121  
526.500000	0.851931  
527.000000	0.821151  
527.500000	0.799901  
528.000000	0.806075  
528.500000	0.830901  
529.000000	0.821128  
529.500000	0.779598  
530.000000	0.747166  
530.500000	0.756303  
531.000000	0.783212  
531.500000	0.781939  
532.000000	0.761787  
532.500000	0.747916  
533.000000	0.748651  
533.500000	0.741439  
534.000000	0.731787  
534.500000	0.725757  
535.000000	0.718356  
535.500000	0.705113  
536.000000	0.688962  
536.500000	0.686371  
537.000000	0.683181  
537.500000	0.676871  
538.000000	0.653515  
538.500000	0.636674  
539.000000	0.629469  
539.500000	0.633500  
540.000000	0.623401  
540.500000	0.605325  
541.000000	0.592560  
541.500000	0.606409  
542.000000	0.630181  
542.500000	0.631636  
543.000000	0.607196  
543.500000	0.579257  
544.000000	0.570984  
544.500000	0.572356  
545.000000	0.563969  
545.500000	0.548848  
546.000000	0.542234  
546.500000	0.541522  
547.000000	0.532787  
547.500000	0.519371  
548.000000	0.513984  
548.500000	0.518007  
549.000000	0.523113  
549.500000	0.520151  
550.000000	0.516280  
550.500000	0.512916  
551.000000	0.514363  
551.500000	0.501886  
552.000000	0.474166  
552.500000	0.453378  
553.000000	0.461249  
553.500000	0.489401  
554.000000	0.500363  
554.500000	0.487166  
555.000000	0.467340  
555.500000	0.459689  
556.000000	0.457174  
556.500000	0.453166  
557.000000	0.443939  
557.500000	0.445825  
558.000000	0.459780  
558.500000	0.469515  
559.000000	0.458893  
559.500000	0.444378  
560.000000	0.440431  
560.500000	0.436772  
561.000000	0.424234  
561.500000	0.412098  
562.000000	0.420659  
562.500000	0.427681  
563.000000	0.421371  
563.500000	0.397765  
564.000000	0.387287  
564.500000	0.381568  
565.000000	0.378674  
565.500000	0.369212  
566.000000	0.366030  
566.500000	0.371356  
567.000000	0.377628  
567.500000	0.375416  
568.000000	0.373893  
568.500000	0.384515  
569.000000	0.395287  
569.500000	0.384803  
570.000000	0.355530  
570.500000	0.336727  
571.000000	0.338553  
571.500000	0.347371  
572.000000	0.353303  
572.500000	0.347666  
573.000000	0.340106  
573.500000	0.328734  
574.000000	0.324219  
574.500000	0.318651  
575.000000	0.315500  
575.500000	0.306734  
576.000000	0.311765  
576.500000	0.317848  
577.000000	0.320106  
577.500000	0.313992  
578.000000	0.307143  
578.500000	0.302803  
579.000000	0.305121  
579.500000	0.307204  
580.000000	0.307522  
580.500000	0.297356  
581.000000	0.284492  
581.500000	0.276128  
582.000000	0.282159  
582.500000	0.288409  
583.000000	0.293424  
583.500000	0.295378  
584.000000	0.301181  
584.500000	0.304583  
585.000000	0.299590  
585.500000	0.288916  
586.000000	0.288227  
586.500000	0.289128  
587.000000	0.278840  
587.500000	0.262560  
588.000000	0.259469  
588.500000	0.269939  
589.000000	0.288295  
589.500000	0.307553  
590.000000	0.325613  
590.500000	0.344492  
591.000000	0.370015  
591.500000	0.429090  
592.000000	0.534037  
592.500000	0.673454  
593.000000	0.854318  
593.500000	1.081159  
594.000000	1.396469  
594.500000	1.771439  
595.000000	2.215212  
595.500000	2.679045  
596.000000	3.214628  
596.500000	3.775340  
597.000000	4.397371  
597.500000	5.041651  
598.000000	5.718015  
598.500000	6.343765  
599.000000	6.930704  
599.500000	7.491871  
600.000000	8.052484  
600.500000	8.604492  
601.000000	9.104030  
601.500000	9.558348  
602.000000	9.949871  
602.500000	10.314060 
603.000000	10.569090 
603.500000	10.652560 
604.000000	10.546416 
604.500000	10.368477 
605.000000	10.210984 
605.500000	10.030560 
606.000000	9.780780  
606.500000	9.406810  
607.000000	8.936575  
607.500000	8.395946  
608.000000	7.874090  
608.500000	7.383916  
609.000000	6.879863  
609.500000	6.294386  
610.000000	5.628204  
610.500000	4.962628  
611.000000	4.347871  
611.500000	3.806757  
612.000000	3.312734  
612.500000	2.850916  
613.000000	2.440075  
613.500000	2.113871  
614.000000	1.874265  
614.500000	1.688659  
615.000000	1.542545  
615.500000	1.447560  
616.000000	1.435242  
616.500000	1.466151  
617.000000	1.523893  
617.500000	1.577409  
618.000000	1.661939  
618.500000	1.763931  
619.000000	1.890000  
619.500000	1.984674  
620.000000	2.075462  
620.500000	2.172545  
621.000000	2.298090  
621.500000	2.408545  
622.000000	2.517787  
622.500000	2.611606  
623.000000	2.702015  
623.500000	2.763628  
624.000000	2.825568  
624.500000	2.908227  
625.000000	3.037613  
625.500000	3.182045  
626.000000	3.302696  
626.500000	3.359386  
627.000000	3.382681  
627.500000	3.432250  
628.000000	3.489598  
628.500000	3.527303  
629.000000	3.568545  
629.500000	3.643242  
630.000000	3.714628  
630.500000	3.741825  
631.000000	3.766924  
631.500000	3.820022  
632.000000	3.876318  
632.500000	3.895090  
633.000000	3.896030  
633.500000	3.910416  
634.000000	3.925992  
634.500000	3.943280  
635.000000	3.965833  
635.500000	4.024727  
636.000000	4.069204  
636.500000	4.095757  
637.000000	4.078189  
637.500000	4.053348  
638.000000	4.046068  
638.500000	4.067659  
639.000000	4.112128  
639.500000	4.149575  
640.000000	4.165628  
640.500000	4.162871  
641.000000	4.165810  
641.500000	4.167969  
642.000000	4.159030  
642.500000	4.118840  
643.000000	4.084499  
643.500000	4.088446  
644.000000	4.126409  
644.500000	4.143272  
645.000000	4.147643  
645.500000	4.162159  
646.000000	4.196462  
646.500000	4.208484  
647.000000	4.203386  
647.500000	4.172068  
648.000000	4.115772  
648.500000	4.052075  
649.000000	4.008159  
649.500000	3.965840  
650.000000	3.896000  

