PE FL                   SPECTRUM    ASCII       PEDS        1.60        
  -1
01#122.SP
02/03/17
00:54:57.00
02/03/17
01:00:26.00


580.000000
1









LS55
300.00
5.00
5.00
SCAN
1
20
100
100
0
50
0
1
0
1
7
ON
750 275 
1 0 0
#HDR
-1
-1
#GR
NM

0.00002384185791015625
0.0
320.000000
0.500000
521
8
0.177484
-0.000090
#DATA
320.000000	0.103000  
320.500000	0.133265  
321.000000	0.144674  
321.500000	0.137848  
322.000000	0.122000  
322.500000	0.113515  
323.000000	0.114325  
323.500000	0.124007  
324.000000	0.127893  
324.500000	0.125477  
325.000000	0.121181  
325.500000	0.123295  
326.000000	0.127909  
326.500000	0.131333  
327.000000	0.130878  
327.500000	0.124795  
328.000000	0.121545  
328.500000	0.121151  
329.000000	0.121931  
329.500000	0.115545  
330.000000	0.111924  
330.500000	0.110484  
331.000000	0.115227  
331.500000	0.116962  
332.000000	0.118060  
332.500000	0.117719  
333.000000	0.120174  
333.500000	0.120818  
334.000000	0.118424  
334.500000	0.108977  
335.000000	0.099606  
335.500000	0.094499  
336.000000	0.095575  
336.500000	0.098712  
337.000000	0.102484  
337.500000	0.100265  
338.000000	0.093181  
338.500000	0.089310  
339.000000	0.090310  
339.500000	0.089424  
340.000000	0.082280  
340.500000	0.076674  
341.000000	0.076128  
341.500000	0.076378  
342.000000	0.067878  
342.500000	0.057492  
343.000000	0.051053  
343.500000	0.052416  
344.000000	0.053643  
344.500000	0.054060  
345.000000	0.052113  
345.500000	0.052000  
346.000000	0.052386  
346.500000	0.052310  
347.000000	0.051916  
347.500000	0.050712  
348.000000	0.051651  
348.500000	0.052772  
349.000000	0.051795  
349.500000	0.045121  
350.000000	0.038590  
350.500000	0.038037  
351.000000	0.040515  
351.500000	0.040106  
352.000000	0.034863  
352.500000	0.032166  
353.000000	0.032181  
353.500000	0.036068  
354.000000	0.038780  
354.500000	0.040219  
355.000000	0.037151  
355.500000	0.034166  
356.000000	0.032833  
356.500000	0.035234  
357.000000	0.034977  
357.500000	0.034931  
358.000000	0.034992  
358.500000	0.036227  
359.000000	0.031469  
359.500000	0.023984  
360.000000	0.019462  
360.500000	0.021931  
361.000000	0.024901  
361.500000	0.024962  
362.000000	0.023295  
362.500000	0.023515  
363.000000	0.025030  
363.500000	0.024613  
364.000000	0.021765  
364.500000	0.018833  
365.000000	0.018568  
365.500000	0.019924  
366.000000	0.020295  
366.500000	0.018507  
367.000000	0.017204  
367.500000	0.018598  
368.000000	0.021969  
368.500000	0.024719  
369.000000	0.027022  
369.500000	0.027750  
370.000000	0.029901  
370.500000	0.029787  
371.000000	0.029772  
371.500000	0.027439  
372.000000	0.029242  
372.500000	0.030121  
373.000000	0.032257  
373.500000	0.028613  
374.000000	0.025977  
374.500000	0.026416  
375.000000	0.031681  
375.500000	0.033340  
376.000000	0.030575  
376.500000	0.027530  
377.000000	0.028560  
377.500000	0.032090  
378.000000	0.034439  
378.500000	0.035719  
379.000000	0.032712  
379.500000	0.029287  
380.000000	0.030606  
380.500000	0.041227  
381.000000	0.050280  
381.500000	0.049886  
382.000000	0.039007  
382.500000	0.030810  
383.000000	0.030863  
383.500000	0.039015  
384.000000	0.046840  
384.500000	0.051712  
385.000000	0.052537  
385.500000	0.052984  
386.000000	0.055575  
386.500000	0.058242  
387.000000	0.062681  
387.500000	0.067393  
388.000000	0.073272  
388.500000	0.071613  
389.000000	0.066962  
389.500000	0.065196  
390.000000	0.073242  
390.500000	0.082128  
391.000000	0.086742  
391.500000	0.086545  
392.000000	0.086318  
392.500000	0.087083  
393.000000	0.088878  
393.500000	0.088734  
394.000000	0.090340  
394.500000	0.093848  
395.000000	0.099371  
395.500000	0.101462  
396.000000	0.104545  
396.500000	0.106651  
397.000000	0.108037  
397.500000	0.105901  
398.000000	0.105583  
398.500000	0.110795  
399.000000	0.116386  
399.500000	0.115492  
400.000000	0.109348  
400.500000	0.105560  
401.000000	0.106984  
401.500000	0.111363  
402.000000	0.115803  
402.500000	0.121606  
403.000000	0.127265  
403.500000	0.131560  
404.000000	0.131931  
404.500000	0.132803  
405.000000	0.131522  
405.500000	0.129424  
406.000000	0.122939  
406.500000	0.116939  
407.000000	0.117022  
407.500000	0.126045  
408.000000	0.140477  
408.500000	0.148424  
409.000000	0.148166  
409.500000	0.142871  
410.000000	0.143462  
410.500000	0.149492  
411.000000	0.158628  
411.500000	0.164643  
412.000000	0.163992  
412.500000	0.158621  
413.000000	0.152507  
413.500000	0.154318  
414.000000	0.159424  
414.500000	0.161659  
415.000000	0.157318  
415.500000	0.156409  
416.000000	0.157098  
416.500000	0.158704  
417.000000	0.156060  
417.500000	0.159121  
418.000000	0.165257  
418.500000	0.169522  
419.000000	0.166719  
419.500000	0.164757  
420.000000	0.169545  
420.500000	0.176287  
421.000000	0.177484  
421.500000	0.168787  
422.000000	0.160310  
422.500000	0.156795  
423.000000	0.159666  
423.500000	0.157848  
424.000000	0.154378  
424.500000	0.153992  
425.000000	0.161098  
425.500000	0.168712  
426.000000	0.171515  
426.500000	0.170151  
427.000000	0.169333  
427.500000	0.171310  
428.000000	0.172189  
428.500000	0.168454  
429.000000	0.158166  
429.500000	0.148181  
430.000000	0.146803  
430.500000	0.152681  
431.000000	0.162613  
431.500000	0.166234  
432.000000	0.161431  
432.500000	0.151924  
433.000000	0.151522  
433.500000	0.158969  
434.000000	0.165757  
434.500000	0.162189  
435.000000	0.152431  
435.500000	0.151363  
436.000000	0.157818  
436.500000	0.162598  
437.000000	0.156128  
437.500000	0.147545  
438.000000	0.143469  
438.500000	0.145727  
439.000000	0.145257  
439.500000	0.143757  
440.000000	0.143681  
440.500000	0.142250  
441.000000	0.141469  
441.500000	0.141893  
442.000000	0.145946  
442.500000	0.148083  
443.000000	0.145734  
443.500000	0.136515  
444.000000	0.130401  
444.500000	0.128272  
445.000000	0.130386  
445.500000	0.129378  
446.000000	0.123969  
446.500000	0.120333  
447.000000	0.120530  
447.500000	0.121500  
448.000000	0.113257  
448.500000	0.102174  
449.000000	0.096507  
449.500000	0.108189  
450.000000	0.120378  
450.500000	0.123871  
451.000000	0.116227  
451.500000	0.111515  
452.000000	0.108621  
452.500000	0.106045  
453.000000	0.104772  
453.500000	0.105636  
454.000000	0.105545  
454.500000	0.103848  
455.000000	0.100696  
455.500000	0.096568  
456.000000	0.089712  
456.500000	0.085621  
457.000000	0.087621  
457.500000	0.089000  
458.000000	0.084386  
458.500000	0.078583  
459.000000	0.079984  
459.500000	0.082575  
460.000000	0.084287  
460.500000	0.080196  
461.000000	0.076924  
461.500000	0.073083  
462.000000	0.073446  
462.500000	0.073318  
463.000000	0.073159  
463.500000	0.069219  
464.000000	0.065863  
464.500000	0.064484  
465.000000	0.064227  
465.500000	0.059500  
466.000000	0.055772  
466.500000	0.057371  
467.000000	0.062060  
467.500000	0.062196  
468.000000	0.057371  
468.500000	0.054999  
469.000000	0.055227  
469.500000	0.051409  
470.000000	0.045166  
470.500000	0.043431  
471.000000	0.047674  
471.500000	0.047234  
472.000000	0.043439  
472.500000	0.042098  
473.000000	0.048454  
473.500000	0.051825  
474.000000	0.051212  
474.500000	0.046553  
475.000000	0.045371  
475.500000	0.042469  
476.000000	0.038712  
476.500000	0.035022  
477.000000	0.032795  
477.500000	0.028522  
478.000000	0.027045  
478.500000	0.030469  
479.000000	0.037068  
479.500000	0.043621  
480.000000	0.044939  
480.500000	0.042742  
481.000000	0.037356  
481.500000	0.033386  
482.000000	0.032727  
482.500000	0.035439  
483.000000	0.035962  
483.500000	0.037106  
484.000000	0.039772  
484.500000	0.043030  
485.000000	0.042545  
485.500000	0.040098  
486.000000	0.038250  
486.500000	0.038409  
487.000000	0.034818  
487.500000	0.030007  
488.000000	0.027287  
488.500000	0.028636  
489.000000	0.030333  
489.500000	0.029833  
490.000000	0.027863  
490.500000	0.025340  
491.000000	0.023765  
491.500000	0.021219  
492.000000	0.018848  
492.500000	0.016371  
493.000000	0.017924  
493.500000	0.020696  
494.000000	0.024500  
494.500000	0.025287  
495.000000	0.024568  
495.500000	0.021393  
496.000000	0.018007  
496.500000	0.015507  
497.000000	0.014696  
497.500000	0.014409  
498.000000	0.014409  
498.500000	0.015628  
499.000000	0.016613  
499.500000	0.017234  
500.000000	0.017318  
500.500000	0.017068  
501.000000	0.016454  
501.500000	0.014310  
502.000000	0.012151  
502.500000	0.009727  
503.000000	0.008181  
503.500000	0.008878  
504.000000	0.011159  
504.500000	0.011750  
505.000000	0.012189  
505.500000	0.013916  
506.000000	0.015484  
506.500000	0.013848  
507.000000	0.010727  
507.500000	0.009431  
508.000000	0.012280  
508.500000	0.014651  
509.000000	0.014212  
509.500000	0.010507  
510.000000	0.007333  
510.500000	0.006219  
511.000000	0.007651  
511.500000	0.007833  
512.000000	0.006742  
512.500000	0.005575  
513.000000	0.006037  
513.500000	0.006780  
514.000000	0.006500  
514.500000	0.006803  
515.000000	0.008030  
515.500000	0.008712  
516.000000	0.006606  
516.500000	0.006750  
517.000000	0.008371  
517.500000	0.009446  
518.000000	0.006189  
518.500000	0.003939  
519.000000	0.003886  
519.500000	0.005621  
520.000000	0.006250  
520.500000	0.006143  
521.000000	0.007462  
521.500000	0.008659  
522.000000	0.008977  
522.500000	0.008318  
523.000000	0.008090  
523.500000	0.007310  
524.000000	0.005303  
524.500000	0.003795  
525.000000	0.004250  
525.500000	0.005840  
526.000000	0.004954  
526.500000	0.003462  
527.000000	0.003015  
527.500000	0.004386  
528.000000	0.004712  
528.500000	0.003401  
529.000000	0.001333  
529.500000	0.001628  
530.000000	0.004401  
530.500000	0.007143  
531.000000	0.006666  
531.500000	0.004287  
532.000000	0.003045  
532.500000	0.004560  
533.000000	0.005863  
533.500000	0.005992  
534.000000	0.004166  
534.500000	0.002992  
535.000000	0.003075  
535.500000	0.005590  
536.000000	0.007712  
536.500000	0.007272  
537.000000	0.004666  
537.500000	0.002992  
538.000000	0.003666  
538.500000	0.004446  
539.000000	0.003712  
539.500000	0.001803  
540.000000	0.000333  
540.500000	0.000363  
541.000000	0.000803  
541.500000	0.001098  
542.000000	0.001022  
542.500000	0.001060  
543.000000	0.000969  
543.500000	0.000560  
544.000000	0.000484  
544.500000	0.000863  
545.000000	0.001151  
545.500000	0.000553  
546.000000	0.000022  
546.500000	0.000287  
547.000000	0.000984  
547.500000	0.001090  
548.000000	0.000560  
548.500000	0.000424  
549.000000	0.000810  
549.500000	0.001500  
550.000000	0.001545  
550.500000	0.001454  
551.000000	0.001196  
551.500000	0.002530  
552.000000	0.003939  
552.500000	0.004818  
553.000000	0.003250  
553.500000	0.001515  
554.000000	0.000007  
554.500000	-0.000090 
555.000000	0.000583  
555.500000	0.001962  
556.000000	0.004045  
556.500000	0.004946  
557.000000	0.004962  
557.500000	0.003068  
558.000000	0.001515  
558.500000	0.000007  
559.000000	-0.000090 
559.500000	0.000765  
560.000000	0.002181  
560.500000	0.002689  
561.000000	0.001909  
561.500000	0.001143  
562.000000	0.000795  
562.500000	0.001022  
563.000000	0.000999  
563.500000	0.000977  
564.000000	0.000901  
564.500000	0.000833  
565.000000	0.001863  
565.500000	0.003265  
566.000000	0.003803  
566.500000	0.002409  
567.000000	0.000666  
567.500000	0.000659  
568.000000	0.002121  
568.500000	0.002681  
569.000000	0.001446  
569.500000	0.000628  
570.000000	0.000621  
570.500000	0.001098  
571.000000	0.001022  
571.500000	0.001060  
572.000000	0.001030  
572.500000	0.000553  
573.000000	0.000022  
573.500000	0.000287  
574.000000	0.000984  
574.500000	0.001030  
575.000000	0.000446  
575.500000	0.000962  
576.000000	0.002121  
576.500000	0.002681  
577.000000	0.001386  
577.500000	0.000575  
578.000000	0.000969  
578.500000	0.001848  
579.000000	0.002060  
579.500000	0.003568  
580.000000	0.006999  

