PE FL                   SPECTRUM    ASCII       PEDS        1.60        
  -1
01#138.SP
02/03/17
02:16:41.00
02/03/17
02:19:03.00


550.000000
1









LS55
310.00
5.00
5.00
SCAN
1
20
100
100
0
100
0
1
0
1
7
ON
550 310 
1 0 0
#HDR
-1
-1
#GR
NM

0.00002384185791015625
0.0
330.000000
0.500000
441
8
0.078250
-0.000424
#DATA
330.000000	0.004000  
330.500000	0.007856  
331.000000	0.016128  
331.500000	0.021598  
332.000000	0.021719  
332.500000	0.018098  
333.000000	0.019590  
333.500000	0.019159  
334.000000	0.014712  
334.500000	0.008356  
335.000000	0.010689  
335.500000	0.016856  
336.000000	0.019871  
336.500000	0.015621  
337.000000	0.012863  
337.500000	0.016363  
338.000000	0.023090  
338.500000	0.025083  
339.000000	0.020734  
339.500000	0.014219  
340.000000	0.013507  
340.500000	0.016939  
341.000000	0.017704  
341.500000	0.014151  
342.000000	0.011606  
342.500000	0.012477  
343.000000	0.012045  
343.500000	0.008977  
344.000000	0.008666  
344.500000	0.013643  
345.000000	0.019833  
345.500000	0.025734  
346.000000	0.029757  
346.500000	0.030287  
347.000000	0.026310  
347.500000	0.021878  
348.000000	0.018704  
348.500000	0.021060  
349.000000	0.023924  
349.500000	0.025280  
350.000000	0.025568  
350.500000	0.029174  
351.000000	0.033863  
351.500000	0.033416  
352.000000	0.027219  
352.500000	0.024310  
353.000000	0.029257  
353.500000	0.036810  
354.000000	0.039303  
354.500000	0.035272  
355.000000	0.027227  
355.500000	0.023848  
356.000000	0.022651  
356.500000	0.024159  
357.000000	0.027310  
357.500000	0.030628  
358.000000	0.031666  
358.500000	0.028409  
359.000000	0.025310  
359.500000	0.025219  
360.000000	0.029583  
360.500000	0.033424  
361.000000	0.035477  
361.500000	0.035492  
362.000000	0.034621  
362.500000	0.035969  
363.000000	0.036560  
363.500000	0.033409  
364.000000	0.027386  
364.500000	0.027727  
365.000000	0.037234  
365.500000	0.044189  
366.000000	0.042462  
366.500000	0.035674  
367.000000	0.034977  
367.500000	0.037030  
368.000000	0.038848  
368.500000	0.043984  
369.000000	0.049863  
369.500000	0.049977  
370.000000	0.040689  
370.500000	0.034121  
371.000000	0.032606  
371.500000	0.041553  
372.000000	0.048265  
372.500000	0.051590  
373.000000	0.048734  
373.500000	0.043878  
374.000000	0.043484  
374.500000	0.044318  
375.000000	0.047454  
375.500000	0.046954  
376.000000	0.049075  
376.500000	0.050871  
377.000000	0.052795  
377.500000	0.046757  
378.000000	0.038257  
378.500000	0.034030  
379.000000	0.037522  
379.500000	0.046098  
380.000000	0.053477  
380.500000	0.058924  
381.000000	0.057507  
381.500000	0.052992  
382.000000	0.046560  
382.500000	0.045530  
383.000000	0.047212  
383.500000	0.052204  
384.000000	0.053939  
384.500000	0.053931  
385.000000	0.055780  
385.500000	0.059757  
386.000000	0.066204  
386.500000	0.071151  
387.000000	0.072234  
387.500000	0.066189  
388.000000	0.059234  
388.500000	0.058939  
389.000000	0.063689  
389.500000	0.066727  
390.000000	0.063954  
390.500000	0.060916  
391.000000	0.061954  
391.500000	0.065553  
392.000000	0.073128  
392.500000	0.073643  
393.000000	0.065628  
393.500000	0.051280  
394.000000	0.046500  
394.500000	0.053901  
395.000000	0.067431  
395.500000	0.074333  
396.000000	0.073363  
396.500000	0.067249  
397.000000	0.061893  
397.500000	0.059083  
398.000000	0.065136  
398.500000	0.071712  
399.000000	0.076984  
399.500000	0.073946  
400.000000	0.069636  
400.500000	0.063446  
401.000000	0.059015  
401.500000	0.057901  
402.000000	0.060628  
402.500000	0.064939  
403.000000	0.060568  
403.500000	0.056143  
404.000000	0.050696  
404.500000	0.053492  
405.000000	0.058068  
405.500000	0.069340  
406.000000	0.075083  
406.500000	0.075462  
407.000000	0.066719  
407.500000	0.060416  
408.000000	0.057477  
408.500000	0.060030  
409.000000	0.061507  
409.500000	0.062431  
410.000000	0.058901  
410.500000	0.053719  
411.000000	0.047416  
411.500000	0.047356  
412.000000	0.050780  
412.500000	0.059227  
413.000000	0.068045  
413.500000	0.075431  
414.000000	0.078250  
414.500000	0.075560  
415.000000	0.071212  
415.500000	0.066151  
416.000000	0.061030  
416.500000	0.056780  
417.000000	0.058242  
417.500000	0.060151  
418.000000	0.059325  
418.500000	0.055015  
419.000000	0.050636  
419.500000	0.048780  
420.000000	0.046098  
420.500000	0.046500  
421.000000	0.048242  
421.500000	0.050378  
422.000000	0.049651  
422.500000	0.048469  
423.000000	0.046833  
423.500000	0.045128  
424.000000	0.042833  
424.500000	0.039522  
425.000000	0.038196  
425.500000	0.036227  
426.000000	0.034136  
426.500000	0.032174  
427.000000	0.029166  
427.500000	0.032924  
428.000000	0.036553  
428.500000	0.038151  
429.000000	0.033106  
429.500000	0.032128  
430.000000	0.031780  
430.500000	0.031492  
431.000000	0.029037  
431.500000	0.033174  
432.000000	0.042469  
432.500000	0.046409  
433.000000	0.040962  
433.500000	0.033015  
434.000000	0.028015  
434.500000	0.025265  
435.000000	0.024469  
435.500000	0.028719  
436.000000	0.033446  
436.500000	0.032977  
437.000000	0.031348  
437.500000	0.033810  
438.000000	0.036840  
438.500000	0.034962  
439.000000	0.029893  
439.500000	0.027045  
440.000000	0.026507  
440.500000	0.026212  
441.000000	0.026007  
441.500000	0.025265  
442.000000	0.023295  
442.500000	0.020393  
443.000000	0.019303  
443.500000	0.021121  
444.000000	0.023530  
444.500000	0.021530  
445.000000	0.017310  
445.500000	0.017613  
446.000000	0.024348  
446.500000	0.028310  
447.000000	0.025121  
447.500000	0.020977  
448.000000	0.019340  
448.500000	0.018022  
449.000000	0.015204  
449.500000	0.012333  
450.000000	0.011242  
450.500000	0.011803  
451.000000	0.011416  
451.500000	0.010083  
452.000000	0.007704  
452.500000	0.007181  
453.000000	0.008499  
453.500000	0.010219  
454.000000	0.009719  
454.500000	0.009477  
455.000000	0.010227  
455.500000	0.011962  
456.000000	0.011787  
456.500000	0.011265  
457.000000	0.009696  
457.500000	0.007712  
458.000000	0.005651  
458.500000	0.005840  
459.000000	0.007333  
459.500000	0.007628  
460.000000	0.007651  
460.500000	0.007916  
461.000000	0.008204  
461.500000	0.004856  
462.000000	0.002136  
462.500000	0.003265  
463.000000	0.006401  
463.500000	0.006553  
464.000000	0.003174  
464.500000	0.000734  
465.000000	0.000143  
465.500000	0.001272  
466.000000	0.002318  
466.500000	0.004356  
467.000000	0.005356  
467.500000	0.004151  
468.000000	0.002484  
468.500000	0.002159  
469.000000	0.002439  
469.500000	0.001500  
470.000000	0.000219  
470.500000	-0.000424 
471.000000	-0.000166 
471.500000	0.000886  
472.000000	0.002242  
472.500000	0.002742  
473.000000	0.001500  
473.500000	0.000219  
474.000000	-0.000303 
474.500000	-0.000060 
475.000000	-0.000053 
475.500000	0.000409  
476.000000	0.000984  
476.500000	0.001151  
477.000000	0.000613  
477.500000	0.000075  
478.000000	-0.000242 
478.500000	-0.000166 
479.000000	0.000886  
479.500000	0.002242  
480.000000	0.002681  
480.500000	0.001446  
481.000000	0.000628  
481.500000	0.000560  
482.000000	0.000984  
482.500000	0.001500  
483.000000	0.002318  
483.500000	0.002621  
484.000000	0.001439  
484.500000	0.000106  
485.000000	0.000053  
485.500000	0.001393  
486.000000	0.002136  
486.500000	0.001765  
487.000000	0.000689  
487.500000	-0.000045 
488.000000	-0.000121 
488.500000	0.000000  
489.000000	0.000000  
489.500000	0.000000  
490.000000	-0.000121 
490.500000	-0.000166 
491.000000	0.000886  
491.500000	0.002242  
492.000000	0.002742  
492.500000	0.001500  
493.000000	0.000219  
493.500000	-0.000303 
494.000000	0.000000  
494.500000	0.000000  
495.000000	0.000000  
495.500000	0.000000  
496.000000	0.000000  
496.500000	0.000000  
497.000000	-0.000060 
497.500000	-0.000053 
498.000000	0.000409  
498.500000	0.000984  
499.000000	0.001151  
499.500000	0.000613  
500.000000	0.000075  
500.500000	-0.000121 
501.000000	0.000000  
501.500000	0.000000  
502.000000	-0.000060 
502.500000	-0.000113 
503.000000	0.000356  
503.500000	0.001393  
504.000000	0.002136  
504.500000	0.001765  
505.000000	0.000689  
505.500000	-0.000045 
506.000000	-0.000121 
506.500000	0.000000  
507.000000	0.000000  
507.500000	0.000000  
508.000000	0.000000  
508.500000	0.000000  
509.000000	0.000000  
509.500000	0.000000  
510.000000	0.000000  
510.500000	0.000000  
511.000000	0.000000  
511.500000	0.000000  
512.000000	0.000000  
512.500000	0.000000  
513.000000	0.000000  
513.500000	0.000000  
514.000000	0.000000  
514.500000	0.000000  
515.000000	0.000000  
515.500000	0.000000  
516.000000	0.000000  
516.500000	0.000000  
517.000000	-0.000060 
517.500000	-0.000053 
518.000000	0.000409  
518.500000	0.000984  
519.000000	0.001151  
519.500000	0.000613  
520.000000	0.000075  
520.500000	-0.000121 
521.000000	0.000000  
521.500000	0.000000  
522.000000	0.000000  
522.500000	0.000000  
523.000000	0.000000  
523.500000	0.000000  
524.000000	0.000000  
524.500000	0.000000  
525.000000	0.000000  
525.500000	0.000000  
526.000000	0.000000  
526.500000	0.000000  
527.000000	0.000000  
527.500000	0.000000  
528.000000	0.000000  
528.500000	-0.000060 
529.000000	-0.000053 
529.500000	0.000409  
530.000000	0.000984  
530.500000	0.001151  
531.000000	0.000613  
531.500000	0.000075  
532.000000	-0.000121 
532.500000	0.000000  
533.000000	0.000000  
533.500000	0.000000  
534.000000	0.000000  
534.500000	0.000000  
535.000000	0.000000  
535.500000	0.000000  
536.000000	0.000000  
536.500000	0.000000  
537.000000	0.000000  
537.500000	0.000000  
538.000000	0.000000  
538.500000	0.000000  
539.000000	0.000000  
539.500000	0.000000  
540.000000	0.000000  
540.500000	0.000000  
541.000000	0.000000  
541.500000	0.000000  
542.000000	0.000000  
542.500000	0.000000  
543.000000	0.000000  
543.500000	0.000000  
544.000000	0.000000  
544.500000	0.000000  
545.000000	0.000000  
545.500000	0.000000  
546.000000	0.000000  
546.500000	0.000000  
547.000000	0.000000  
547.500000	0.000000  
548.000000	0.000000  
548.500000	0.000000  
549.000000	0.000000  
549.500000	0.000000  
550.000000	0.000000  

