PE FL                   SPECTRUM    ASCII       PEDS        1.60        
  -1
01#137.SP
02/03/17
02:13:24.00
02/03/17
02:15:46.00


550.000000
1









LS55
310.00
5.00
5.00
SCAN
1
20
100
100
0
100
0
1
0
1
7
ON
550 310 
1 0 0
#HDR
-1
-1
#GR
NM

0.00002384185791015625
0.0
330.000000
0.500000
441
8
9.906454
0.243803
#DATA
330.000000	0.285999 
330.500000	0.251265 
331.000000	0.243803 
331.500000	0.256590 
332.000000	0.274939 
332.500000	0.284696 
333.000000	0.294022 
333.500000	0.293909 
334.000000	0.295984 
334.500000	0.292871 
335.000000	0.297295 
335.500000	0.302204 
336.000000	0.316590 
336.500000	0.328333 
337.000000	0.340363 
337.500000	0.355810 
338.000000	0.368522 
338.500000	0.372159 
339.000000	0.364742 
339.500000	0.363424 
340.000000	0.367401 
340.500000	0.374462 
341.000000	0.375227 
341.500000	0.374378 
342.000000	0.377030 
342.500000	0.388712 
343.000000	0.407159 
343.500000	0.419583 
344.000000	0.419446 
344.500000	0.412159 
345.000000	0.409962 
345.500000	0.415363 
346.000000	0.419795 
346.500000	0.422636 
347.000000	0.428424 
347.500000	0.444348 
348.000000	0.471583 
348.500000	0.492280 
349.000000	0.498000 
349.500000	0.485734 
350.000000	0.486159 
350.500000	0.512181 
351.000000	0.542871 
351.500000	0.546863 
352.000000	0.534818 
352.500000	0.531818 
353.000000	0.535636 
353.500000	0.543310 
354.000000	0.556257 
354.500000	0.588681 
355.000000	0.613189 
355.500000	0.622477 
356.000000	0.631325 
356.500000	0.657212 
357.000000	0.684924 
357.500000	0.693507 
358.000000	0.688727 
358.500000	0.685931 
359.000000	0.710386 
359.500000	0.744166 
360.000000	0.780340 
360.500000	0.796159 
361.000000	0.806553 
361.500000	0.815272 
362.000000	0.830530 
362.500000	0.845075 
363.000000	0.859166 
363.500000	0.877000 
364.000000	0.895242 
364.500000	0.918901 
365.000000	0.938030 
365.500000	0.955590 
366.000000	0.984128 
366.500000	1.026530 
367.000000	1.072416 
367.500000	1.101159 
368.000000	1.113227 
368.500000	1.124484 
369.000000	1.153712 
369.500000	1.192825 
370.000000	1.240590 
370.500000	1.281515 
371.000000	1.322772 
371.500000	1.355825 
372.000000	1.386174 
372.500000	1.413878 
373.000000	1.456734 
373.500000	1.525030 
374.000000	1.614409 
374.500000	1.687090 
375.000000	1.728053 
375.500000	1.767568 
376.000000	1.843939 
376.500000	1.930750 
377.000000	2.000053 
377.500000	2.039734 
378.000000	2.103803 
378.500000	2.161409 
379.000000	2.202787 
379.500000	2.235250 
380.000000	2.314325 
380.500000	2.432583 
381.000000	2.547265 
381.500000	2.617553 
382.000000	2.665121 
382.500000	2.728090 
383.000000	2.811628 
383.500000	2.927159 
384.000000	3.036409 
384.500000	3.117962 
385.000000	3.175659 
385.500000	3.280196 
386.000000	3.425848 
386.500000	3.562886 
387.000000	3.630469 
387.500000	3.686848 
388.000000	3.773454 
388.500000	3.871174 
389.000000	3.969121 
389.500000	4.056696 
390.000000	4.156159 
390.500000	4.247136 
391.000000	4.374212 
391.500000	4.483848 
392.000000	4.568636 
392.500000	4.604030 
393.000000	4.696439 
393.500000	4.820446 
394.000000	4.953840 
394.500000	5.027227 
395.000000	5.133613 
395.500000	5.265575 
396.000000	5.409113 
396.500000	5.486143 
397.000000	5.560659 
397.500000	5.647159 
398.000000	5.767424 
398.500000	5.835325 
399.000000	5.925772 
399.500000	6.042780 
400.000000	6.177568 
400.500000	6.240083 
401.000000	6.302568 
401.500000	6.414803 
402.000000	6.567303 
402.500000	6.662037 
403.000000	6.706568 
403.500000	6.777636 
404.000000	6.889666 
404.500000	7.005106 
405.000000	7.082242 
405.500000	7.150871 
406.000000	7.263340 
406.500000	7.409045 
407.000000	7.518113 
407.500000	7.593909 
408.000000	7.686113 
408.500000	7.803272 
409.000000	7.879363 
409.500000	7.900045 
410.000000	7.924083 
410.500000	7.998522 
411.000000	8.085689 
411.500000	8.160121 
412.000000	8.231553 
412.500000	8.317606 
413.000000	8.412015 
413.500000	8.520886 
414.000000	8.613499 
414.500000	8.672909 
415.000000	8.693515 
415.500000	8.731303 
416.000000	8.848045 
416.500000	8.995121 
417.000000	9.105174 
417.500000	9.162825 
418.000000	9.225537 
418.500000	9.297954 
419.000000	9.328015 
419.500000	9.341030 
420.000000	9.377083 
420.500000	9.445310 
421.000000	9.480878 
421.500000	9.505060 
422.000000	9.532318 
422.500000	9.596878 
423.000000	9.655499 
423.500000	9.696803 
424.000000	9.701098 
424.500000	9.676825 
425.000000	9.662113 
425.500000	9.721159 
426.000000	9.782007 
426.500000	9.800356 
427.000000	9.755757 
427.500000	9.726969 
428.000000	9.772833 
428.500000	9.862840 
429.000000	9.906454 
429.500000	9.866068 
430.000000	9.810303 
430.500000	9.803462 
431.000000	9.857446 
431.500000	9.895856 
432.000000	9.888007 
432.500000	9.846818 
433.000000	9.790530 
433.500000	9.742537 
434.000000	9.697189 
434.500000	9.676515 
435.000000	9.693568 
435.500000	9.721931 
436.000000	9.704795 
436.500000	9.660318 
437.000000	9.637598 
437.500000	9.634803 
438.000000	9.607340 
438.500000	9.570575 
439.000000	9.520992 
439.500000	9.504454 
440.000000	9.493363 
440.500000	9.473840 
441.000000	9.366712 
441.500000	9.238969 
442.000000	9.148537 
442.500000	9.144303 
443.000000	9.111090 
443.500000	9.041765 
444.000000	8.967204 
444.500000	8.899204 
445.000000	8.824893 
445.500000	8.737431 
446.000000	8.664909 
446.500000	8.637863 
447.000000	8.636227 
447.500000	8.575469 
448.000000	8.480553 
448.500000	8.413371 
449.000000	8.398931 
449.500000	8.383749 
450.000000	8.298621 
450.500000	8.187568 
451.000000	8.081696 
451.500000	8.016022 
452.000000	7.955931 
452.500000	7.901606 
453.000000	7.811469 
453.500000	7.726166 
454.000000	7.615030 
454.500000	7.532613 
455.000000	7.454075 
455.500000	7.398348 
456.000000	7.312636 
456.500000	7.237227 
457.000000	7.206553 
457.500000	7.210340 
458.000000	7.166515 
458.500000	7.048878 
459.000000	6.943363 
459.500000	6.856090 
460.000000	6.793818 
460.500000	6.699174 
461.000000	6.637560 
461.500000	6.586015 
462.000000	6.537075 
462.500000	6.456409 
463.000000	6.410356 
463.500000	6.368833 
464.000000	6.320643 
464.500000	6.230462 
465.000000	6.167962 
465.500000	6.141636 
466.000000	6.123090 
466.500000	6.047265 
467.000000	5.928295 
467.500000	5.815704 
468.000000	5.741424 
468.500000	5.702045 
469.000000	5.690098 
469.500000	5.714439 
470.000000	5.725469 
470.500000	5.681265 
471.000000	5.584000 
471.500000	5.501659 
472.000000	5.464613 
472.500000	5.451560 
473.000000	5.441696 
473.500000	5.414515 
474.000000	5.355704 
474.500000	5.290795 
475.000000	5.279469 
475.500000	5.268946 
476.000000	5.217196 
476.500000	5.121159 
477.000000	5.077439 
477.500000	5.066439 
478.000000	5.051810 
478.500000	5.008287 
479.000000	4.984750 
479.500000	4.967522 
480.000000	4.933000 
480.500000	4.880151 
481.000000	4.841128 
481.500000	4.823636 
482.000000	4.801613 
482.500000	4.755007 
483.000000	4.731727 
483.500000	4.734568 
484.000000	4.730621 
484.500000	4.698537 
485.000000	4.693750 
485.500000	4.688606 
486.000000	4.647143 
486.500000	4.554696 
487.000000	4.492227 
487.500000	4.487575 
488.000000	4.518227 
488.500000	4.540871 
489.000000	4.524840 
489.500000	4.480409 
490.000000	4.418030 
490.500000	4.383454 
491.000000	4.363916 
491.500000	4.325075 
492.000000	4.261143 
492.500000	4.213234 
493.000000	4.197916 
493.500000	4.191295 
494.000000	4.179772 
494.500000	4.177249 
495.000000	4.184196 
495.500000	4.173780 
496.000000	4.128568 
496.500000	4.102098 
497.000000	4.077954 
497.500000	4.036530 
498.000000	3.970136 
498.500000	3.927992 
499.000000	3.913772 
499.500000	3.910462 
500.000000	3.901924 
500.500000	3.900295 
501.000000	3.890378 
501.500000	3.866674 
502.000000	3.842318 
502.500000	3.836522 
503.000000	3.831590 
503.500000	3.803242 
504.000000	3.762848 
504.500000	3.731393 
505.000000	3.704681 
505.500000	3.662484 
506.000000	3.615219 
506.500000	3.600522 
507.000000	3.608287 
507.500000	3.616901 
508.000000	3.594893 
508.500000	3.573946 
509.000000	3.550590 
509.500000	3.515984 
510.000000	3.481954 
510.500000	3.476363 
511.000000	3.507446 
511.500000	3.516916 
512.000000	3.501083 
512.500000	3.443113 
513.000000	3.379803 
513.500000	3.321909 
514.000000	3.315007 
514.500000	3.334704 
515.000000	3.341727 
515.500000	3.315196 
516.000000	3.297477 
516.500000	3.309666 
517.000000	3.320871 
517.500000	3.300371 
518.000000	3.249757 
518.500000	3.203772 
519.000000	3.200916 
519.500000	3.201825 
520.000000	3.178886 
520.500000	3.122696 
521.000000	3.102409 
521.500000	3.136348 
522.000000	3.183712 
522.500000	3.188022 
523.000000	3.163272 
523.500000	3.134909 
524.000000	3.110969 
524.500000	3.108303 
525.000000	3.087901 
525.500000	3.072833 
526.000000	3.059439 
526.500000	3.078356 
527.000000	3.111356 
527.500000	3.125553 
528.000000	3.081439 
528.500000	3.014340 
529.000000	2.958734 
529.500000	2.929439 
530.000000	2.911378 
530.500000	2.900840 
531.000000	2.905272 
531.500000	2.923401 
532.000000	2.939537 
532.500000	2.951696 
533.000000	2.946174 
533.500000	2.913742 
534.000000	2.873446 
534.500000	2.866363 
535.000000	2.886015 
535.500000	2.897492 
536.000000	2.890136 
536.500000	2.872477 
537.000000	2.834212 
537.500000	2.788848 
538.000000	2.757757 
538.500000	2.742568 
539.000000	2.725886 
539.500000	2.705030 
540.000000	2.700484 
540.500000	2.701303 
541.000000	2.681401 
541.500000	2.643454 
542.000000	2.630053 
542.500000	2.640303 
543.000000	2.661045 
543.500000	2.671886 
544.000000	2.682227 
544.500000	2.692106 
545.000000	2.679560 
545.500000	2.641393 
546.000000	2.595530 
546.500000	2.558636 
547.000000	2.535303 
547.500000	2.533734 
548.000000	2.544045 
548.500000	2.549924 
549.000000	2.522007 
549.500000	2.441007 
550.000000	2.325000 

