PE FL                   SPECTRUM    ASCII       PEDS        1.60        
  -1
01#130.SP
02/03/17
01:36:00.00
02/03/17
01:41:33.00


600.000000
1









LS55
310.00
5.00
5.00
SCAN
1
20
100
100
0
50
0
1
0
1
7
ON
430 410 
1 0 0
#HDR
-1
-1
#GR
NM

0.00002384185791015625
0.0
330.000000
0.500000
541
8
0.911204
0.005333
#DATA
330.000000	0.029000 
330.500000	0.012939 
331.000000	0.007795 
331.500000	0.010530 
332.000000	0.011878 
332.500000	0.010143 
333.000000	0.009469 
333.500000	0.011310 
334.000000	0.014037 
334.500000	0.014757 
335.000000	0.013045 
335.500000	0.008704 
336.000000	0.005333 
336.500000	0.005787 
337.000000	0.010250 
337.500000	0.012386 
338.000000	0.012613 
338.500000	0.012416 
339.000000	0.016045 
339.500000	0.016780 
340.000000	0.014893 
340.500000	0.011000 
341.000000	0.010606 
341.500000	0.011765 
342.000000	0.015007 
342.500000	0.018856 
343.000000	0.022651 
343.500000	0.023659 
344.000000	0.021037 
344.500000	0.016484 
345.000000	0.015075 
345.500000	0.018742 
346.000000	0.025363 
346.500000	0.031651 
347.000000	0.034469 
347.500000	0.032681 
348.000000	0.026666 
348.500000	0.023636 
349.000000	0.025053 
349.500000	0.028863 
350.000000	0.030363 
350.500000	0.032090 
351.000000	0.036719 
351.500000	0.042689 
352.000000	0.046613 
352.500000	0.045515 
353.000000	0.043060 
353.500000	0.042825 
354.000000	0.047462 
354.500000	0.052636 
355.000000	0.056439 
355.500000	0.056053 
356.000000	0.055545 
356.500000	0.052954 
357.000000	0.049340 
357.500000	0.043621 
358.000000	0.044068 
358.500000	0.050325 
359.000000	0.061636 
359.500000	0.067651 
360.000000	0.067530 
360.500000	0.062363 
361.000000	0.059583 
361.500000	0.058681 
362.000000	0.064492 
362.500000	0.076537 
363.000000	0.089712 
363.500000	0.096204 
364.000000	0.097242 
364.500000	0.097772 
365.000000	0.103250 
365.500000	0.108969 
366.000000	0.115424 
366.500000	0.118636 
367.000000	0.122992 
367.500000	0.125992 
368.000000	0.133424 
368.500000	0.135386 
369.000000	0.134363 
369.500000	0.131696 
370.000000	0.134863 
370.500000	0.138750 
371.000000	0.146037 
371.500000	0.155037 
372.000000	0.159954 
372.500000	0.154659 
373.000000	0.145257 
373.500000	0.147984 
374.000000	0.163045 
374.500000	0.180151 
375.000000	0.188022 
375.500000	0.194090 
376.000000	0.199568 
376.500000	0.206030 
377.000000	0.212810 
377.500000	0.217825 
378.000000	0.221204 
378.500000	0.225143 
379.000000	0.233181 
379.500000	0.242863 
380.000000	0.247704 
380.500000	0.251734 
381.000000	0.254106 
381.500000	0.264772 
382.000000	0.277666 
382.500000	0.296931 
383.000000	0.308772 
383.500000	0.317265 
384.000000	0.325068 
384.500000	0.342340 
385.000000	0.358446 
385.500000	0.367439 
386.000000	0.368727 
386.500000	0.371628 
387.000000	0.379068 
387.500000	0.394340 
388.000000	0.407757 
388.500000	0.415750 
389.000000	0.417901 
389.500000	0.423121 
390.000000	0.433606 
390.500000	0.446022 
391.000000	0.459477 
391.500000	0.471196 
392.000000	0.478848 
392.500000	0.480969 
393.000000	0.485560 
393.500000	0.500666 
394.000000	0.520689 
394.500000	0.541628 
395.000000	0.550424 
395.500000	0.551090 
396.000000	0.544568 
396.500000	0.545909 
397.000000	0.551681 
397.500000	0.565416 
398.000000	0.578265 
398.500000	0.595280 
399.000000	0.604833 
399.500000	0.615393 
400.000000	0.625378 
400.500000	0.646174 
401.000000	0.661242 
401.500000	0.669840 
402.000000	0.670204 
402.500000	0.681795 
403.000000	0.702750 
403.500000	0.718090 
404.000000	0.719053 
404.500000	0.716507 
405.000000	0.725999 
405.500000	0.740075 
406.000000	0.745166 
406.500000	0.740378 
407.000000	0.738863 
407.500000	0.748249 
408.000000	0.759159 
408.500000	0.768962 
409.000000	0.774295 
409.500000	0.784318 
410.000000	0.792689 
410.500000	0.801810 
411.000000	0.807204 
411.500000	0.819075 
412.000000	0.825136 
412.500000	0.826734 
413.000000	0.825227 
413.500000	0.834340 
414.000000	0.845393 
414.500000	0.854204 
415.000000	0.853515 
415.500000	0.854053 
416.000000	0.855386 
416.500000	0.865022 
417.000000	0.875340 
417.500000	0.888204 
418.000000	0.889333 
418.500000	0.889719 
419.000000	0.885333 
419.500000	0.885765 
420.000000	0.881499 
420.500000	0.878787 
421.000000	0.874780 
421.500000	0.881636 
422.000000	0.887833 
422.500000	0.889666 
423.000000	0.883954 
423.500000	0.887393 
424.000000	0.895833 
424.500000	0.904689 
425.000000	0.906909 
425.500000	0.906484 
426.000000	0.904992 
426.500000	0.904318 
427.000000	0.904946 
427.500000	0.903333 
428.000000	0.898749 
428.500000	0.899181 
429.000000	0.904749 
429.500000	0.911204 
430.000000	0.905500 
430.500000	0.897159 
431.000000	0.892454 
431.500000	0.892954 
432.000000	0.892075 
432.500000	0.890924 
433.000000	0.889977 
433.500000	0.893416 
434.000000	0.896909 
434.500000	0.898462 
435.000000	0.892409 
435.500000	0.889159 
436.000000	0.886939 
436.500000	0.885333 
437.000000	0.869090 
437.500000	0.856871 
438.000000	0.858568 
438.500000	0.867628 
439.000000	0.869666 
439.500000	0.865628 
440.000000	0.863871 
440.500000	0.859090 
441.000000	0.849651 
441.500000	0.845272 
442.000000	0.849969 
442.500000	0.847939 
443.000000	0.835863 
443.500000	0.826196 
444.000000	0.822810 
444.500000	0.820181 
445.000000	0.813477 
445.500000	0.806946 
446.000000	0.804242 
446.500000	0.804128 
447.000000	0.805848 
447.500000	0.799742 
448.000000	0.783219 
448.500000	0.764075 
449.000000	0.757075 
449.500000	0.757219 
450.000000	0.752606 
450.500000	0.743272 
451.000000	0.731469 
451.500000	0.723098 
452.000000	0.712068 
452.500000	0.707628 
453.000000	0.704818 
453.500000	0.702053 
454.000000	0.686446 
454.500000	0.667333 
455.000000	0.659462 
455.500000	0.664530 
456.000000	0.665265 
456.500000	0.656022 
457.000000	0.647128 
457.500000	0.638984 
458.000000	0.636818 
458.500000	0.634696 
459.000000	0.628939 
459.500000	0.616393 
460.000000	0.600060 
460.500000	0.589113 
461.000000	0.582022 
461.500000	0.578825 
462.000000	0.574795 
462.500000	0.565848 
463.000000	0.546181 
463.500000	0.530780 
464.000000	0.532045 
464.500000	0.539598 
465.000000	0.535030 
465.500000	0.514636 
466.000000	0.499174 
466.500000	0.501083 
467.000000	0.512068 
467.500000	0.514181 
468.000000	0.502159 
468.500000	0.495174 
469.000000	0.495636 
469.500000	0.499674 
470.000000	0.494530 
470.500000	0.483871 
471.000000	0.473204 
471.500000	0.468734 
472.000000	0.464840 
472.500000	0.463916 
473.000000	0.460477 
473.500000	0.454196 
474.000000	0.446303 
474.500000	0.442931 
475.000000	0.443219 
475.500000	0.443022 
476.000000	0.435681 
476.500000	0.426969 
477.000000	0.424075 
477.500000	0.420750 
478.000000	0.418575 
478.500000	0.415318 
479.000000	0.419674 
479.500000	0.423590 
480.000000	0.422659 
480.500000	0.415901 
481.000000	0.411825 
481.500000	0.414318 
482.000000	0.415340 
482.500000	0.414121 
483.000000	0.406409 
483.500000	0.401477 
484.000000	0.394325 
484.500000	0.394916 
485.000000	0.399674 
485.500000	0.405916 
486.000000	0.404916 
486.500000	0.400856 
487.000000	0.392848 
487.500000	0.386507 
488.000000	0.384166 
488.500000	0.386128 
489.000000	0.379916 
489.500000	0.364469 
490.000000	0.354833 
490.500000	0.358371 
491.000000	0.364363 
491.500000	0.362719 
492.000000	0.358916 
492.500000	0.353553 
493.000000	0.344136 
493.500000	0.335848 
494.000000	0.335719 
494.500000	0.339651 
495.000000	0.335416 
495.500000	0.325340 
496.000000	0.313272 
496.500000	0.309022 
497.000000	0.307780 
497.500000	0.312378 
498.000000	0.313219 
498.500000	0.303818 
499.000000	0.287143 
499.500000	0.277613 
500.000000	0.280090 
500.500000	0.289113 
501.000000	0.292507 
501.500000	0.287310 
502.000000	0.279886 
502.500000	0.276303 
503.000000	0.279121 
503.500000	0.285219 
504.000000	0.283696 
504.500000	0.278143 
505.000000	0.270492 
505.500000	0.269454 
506.000000	0.271856 
506.500000	0.275719 
507.000000	0.272000 
507.500000	0.265113 
508.000000	0.256613 
508.500000	0.255446 
509.000000	0.259916 
509.500000	0.260984 
510.000000	0.256219 
510.500000	0.249659 
511.000000	0.247568 
511.500000	0.247856 
512.000000	0.249189 
512.500000	0.249719 
513.000000	0.249106 
513.500000	0.245439 
514.000000	0.236916 
514.500000	0.230598 
515.000000	0.230750 
515.500000	0.237583 
516.000000	0.241924 
516.500000	0.239734 
517.000000	0.234939 
517.500000	0.234500 
518.000000	0.235871 
518.500000	0.234401 
519.000000	0.229992 
519.500000	0.223734 
520.000000	0.217128 
520.500000	0.215765 
521.000000	0.221325 
521.500000	0.230075 
522.000000	0.230530 
522.500000	0.221204 
523.000000	0.209977 
523.500000	0.206068 
524.000000	0.211734 
524.500000	0.217757 
525.000000	0.218174 
525.500000	0.211227 
526.000000	0.205454 
526.500000	0.202204 
527.000000	0.203500 
527.500000	0.205234 
528.000000	0.203431 
528.500000	0.200666 
529.000000	0.200939 
529.500000	0.204984 
530.000000	0.206545 
530.500000	0.204613 
531.000000	0.203295 
531.500000	0.202219 
532.000000	0.196015 
532.500000	0.187280 
533.000000	0.184053 
533.500000	0.188265 
534.000000	0.193068 
534.500000	0.193666 
535.000000	0.191659 
535.500000	0.192151 
536.000000	0.193590 
536.500000	0.193772 
537.000000	0.190886 
537.500000	0.185651 
538.000000	0.181939 
538.500000	0.182636 
539.000000	0.183257 
539.500000	0.183969 
540.000000	0.185348 
540.500000	0.187166 
541.000000	0.182439 
541.500000	0.174727 
542.000000	0.169409 
542.500000	0.169106 
543.000000	0.168037 
543.500000	0.168250 
544.000000	0.173015 
544.500000	0.177628 
545.000000	0.176765 
545.500000	0.173477 
546.000000	0.170007 
546.500000	0.165340 
547.000000	0.157431 
547.500000	0.151492 
548.000000	0.151045 
548.500000	0.155765 
549.000000	0.158810 
549.500000	0.157583 
550.000000	0.150409 
550.500000	0.146719 
551.000000	0.150590 
551.500000	0.160659 
552.000000	0.166462 
552.500000	0.167734 
553.000000	0.164136 
553.500000	0.161469 
554.000000	0.154015 
554.500000	0.150250 
555.000000	0.150060 
555.500000	0.154712 
556.000000	0.154545 
556.500000	0.150310 
557.000000	0.143060 
557.500000	0.140924 
558.000000	0.142515 
558.500000	0.148750 
559.000000	0.154931 
559.500000	0.158159 
560.000000	0.154545 
560.500000	0.144795 
561.000000	0.136553 
561.500000	0.131545 
562.000000	0.130696 
562.500000	0.130977 
563.000000	0.136401 
563.500000	0.136204 
564.000000	0.131636 
564.500000	0.124840 
565.000000	0.126848 
565.500000	0.132643 
566.000000	0.137643 
566.500000	0.140833 
567.000000	0.142136 
567.500000	0.141409 
568.000000	0.137545 
568.500000	0.132250 
569.000000	0.124765 
569.500000	0.122060 
570.000000	0.122780 
570.500000	0.123318 
571.000000	0.121939 
571.500000	0.124833 
572.000000	0.131007 
572.500000	0.130454 
573.000000	0.121765 
573.500000	0.112189 
574.000000	0.112196 
574.500000	0.116780 
575.000000	0.119318 
575.500000	0.116325 
576.000000	0.116325 
576.500000	0.118575 
577.000000	0.116969 
577.500000	0.108325 
578.000000	0.103431 
578.500000	0.107568 
579.000000	0.111151 
579.500000	0.108060 
580.000000	0.102166 
580.500000	0.101651 
581.000000	0.103825 
581.500000	0.104060 
582.000000	0.099257 
582.500000	0.096113 
583.000000	0.099257 
583.500000	0.105409 
584.000000	0.107757 
584.500000	0.102280 
585.000000	0.099530 
585.500000	0.099363 
586.000000	0.102909 
586.500000	0.102939 
587.000000	0.102893 
587.500000	0.098492 
588.000000	0.093992 
588.500000	0.087674 
589.000000	0.086166 
589.500000	0.088212 
590.000000	0.092174 
590.500000	0.095787 
591.000000	0.095015 
591.500000	0.090560 
592.000000	0.083598 
592.500000	0.083439 
593.000000	0.088280 
593.500000	0.096409 
594.000000	0.096886 
594.500000	0.094462 
595.000000	0.090409 
595.500000	0.091272 
596.000000	0.094984 
596.500000	0.100000 
597.000000	0.100537 
597.500000	0.095530 
598.000000	0.091590 
598.500000	0.091545 
599.000000	0.090810 
599.500000	0.082227 
600.000000	0.066999 

