PE FL                   SPECTRUM    ASCII       PEDS        1.60        
  -1
01#142.SP
02/03/17
02:43:15.00
02/03/17
02:53:04.00


580.000000
1









LS55
310.00
5.00
5.00
SCAN
1
20
100
100
0
25
0
1
0
1
7
ON
650 370 
1 0 0
#HDR
-1
-1
#GR
NM

0.00002384185791015625
0.0
340.000000
0.500000
481
8
0.069999
-0.000303
#DATA
340.000000	0.069999  
340.500000	0.028446  
341.000000	0.007871  
341.500000	0.006159  
342.000000	0.008772  
342.500000	0.008674  
343.000000	0.009689  
343.500000	0.011666  
344.000000	0.013553  
344.500000	0.012553  
345.000000	0.010939  
345.500000	0.010378  
346.000000	0.011606  
346.500000	0.012000  
347.000000	0.011992  
347.500000	0.011962  
348.000000	0.012636  
348.500000	0.012234  
349.000000	0.011916  
349.500000	0.012378  
350.000000	0.012939  
350.500000	0.012765  
351.000000	0.011583  
351.500000	0.010643  
352.000000	0.011825  
352.500000	0.015227  
353.000000	0.018628  
353.500000	0.018401  
354.000000	0.015795  
354.500000	0.013643  
355.000000	0.014946  
355.500000	0.016681  
356.000000	0.016340  
356.500000	0.014409  
357.000000	0.013674  
357.500000	0.015704  
358.000000	0.017393  
358.500000	0.018848  
359.000000	0.019075  
359.500000	0.020712  
360.000000	0.022136  
360.500000	0.023553  
361.000000	0.024053  
361.500000	0.024765  
362.000000	0.024310  
362.500000	0.023174  
363.000000	0.022265  
363.500000	0.023924  
364.000000	0.028416  
364.500000	0.031924  
365.000000	0.030977  
365.500000	0.025878  
366.000000	0.022931  
366.500000	0.023121  
367.000000	0.025765  
367.500000	0.025386  
368.000000	0.024166  
368.500000	0.023371  
369.000000	0.026106  
369.500000	0.029719  
370.000000	0.030977  
370.500000	0.029651  
371.000000	0.028628  
371.500000	0.029083  
372.000000	0.029174  
372.500000	0.030060  
373.000000	0.030416  
373.500000	0.031174  
374.000000	0.029871  
374.500000	0.028022  
375.000000	0.026340  
375.500000	0.027386  
376.000000	0.030318  
376.500000	0.034984  
377.000000	0.036227  
377.500000	0.034659  
378.000000	0.032689  
378.500000	0.034257  
379.000000	0.037628  
379.500000	0.039000  
380.000000	0.035507  
380.500000	0.031636  
381.000000	0.032295  
381.500000	0.037325  
382.000000	0.041803  
382.500000	0.041113  
383.000000	0.038356  
383.500000	0.037393  
384.000000	0.040462  
384.500000	0.040310  
385.000000	0.037348  
385.500000	0.034643  
386.000000	0.036840  
386.500000	0.040537  
387.000000	0.042022  
387.500000	0.040265  
388.000000	0.040295  
388.500000	0.042295  
389.000000	0.041719  
389.500000	0.037477  
390.000000	0.033242  
390.500000	0.034318  
391.000000	0.037803  
391.500000	0.040295  
392.000000	0.042840  
392.500000	0.045893  
393.000000	0.046000  
393.500000	0.043696  
394.000000	0.041765  
394.500000	0.040053  
395.000000	0.037621  
395.500000	0.036090  
396.000000	0.038083  
396.500000	0.041765  
397.000000	0.043613  
397.500000	0.043234  
398.000000	0.041954  
398.500000	0.042340  
399.000000	0.042886  
399.500000	0.042568  
400.000000	0.041015  
400.500000	0.041500  
401.000000	0.044174  
401.500000	0.046090  
402.000000	0.047469  
402.500000	0.050787  
403.000000	0.052856  
403.500000	0.050409  
404.000000	0.045704  
404.500000	0.043416  
405.000000	0.046303  
405.500000	0.051954  
406.000000	0.057166  
406.500000	0.057227  
407.000000	0.051265  
407.500000	0.043553  
408.000000	0.041674  
408.500000	0.044742  
409.000000	0.048916  
409.500000	0.051037  
410.000000	0.049727  
410.500000	0.046871  
411.000000	0.044689  
411.500000	0.045340  
412.000000	0.046568  
412.500000	0.047568  
413.000000	0.047053  
413.500000	0.049083  
414.000000	0.050818  
414.500000	0.048946  
415.000000	0.043772  
415.500000	0.039727  
416.000000	0.038916  
416.500000	0.038999  
417.000000	0.038537  
417.500000	0.038174  
418.000000	0.039371  
418.500000	0.039113  
419.000000	0.037143  
419.500000	0.037219  
420.000000	0.039401  
420.500000	0.040590  
421.000000	0.037121  
421.500000	0.034098  
422.000000	0.034583  
422.500000	0.037462  
423.000000	0.037984  
423.500000	0.037356  
424.000000	0.037378  
424.500000	0.037803  
425.000000	0.036659  
425.500000	0.034174  
426.000000	0.030856  
426.500000	0.028484  
427.000000	0.028674  
427.500000	0.030984  
428.000000	0.031598  
428.500000	0.029590  
429.000000	0.027128  
429.500000	0.027712  
430.000000	0.028507  
430.500000	0.026454  
431.000000	0.021924  
431.500000	0.019121  
432.000000	0.020537  
432.500000	0.023939  
433.000000	0.026083  
433.500000	0.025537  
434.000000	0.024393  
434.500000	0.023174  
435.000000	0.023431  
435.500000	0.023992  
436.000000	0.025575  
436.500000	0.026356  
437.000000	0.025257  
437.500000	0.021863  
438.000000	0.018500  
438.500000	0.016560  
439.000000	0.017060  
439.500000	0.018734  
440.000000	0.019909  
440.500000	0.019469  
441.000000	0.017628  
441.500000	0.016560  
442.000000	0.015924  
442.500000	0.016272  
443.000000	0.016500  
443.500000	0.017053  
444.000000	0.015560  
444.500000	0.014643  
445.000000	0.014363  
445.500000	0.015681  
446.000000	0.015886  
446.500000	0.015674  
447.000000	0.014250  
447.500000	0.011712  
448.000000	0.008257  
448.500000	0.006924  
449.000000	0.008803  
449.500000	0.011621  
450.000000	0.013439  
450.500000	0.012696  
451.000000	0.010053  
451.500000	0.006833  
452.000000	0.005454  
452.500000	0.006280  
453.000000	0.007833  
453.500000	0.007749  
454.000000	0.007416  
454.500000	0.007363  
455.000000	0.007060  
455.500000	0.005621  
456.000000	0.004507  
456.500000	0.004522  
457.000000	0.005030  
457.500000	0.005212  
458.000000	0.004901  
458.500000	0.004681  
459.000000	0.004234  
459.500000	0.003871  
460.000000	0.003257  
460.500000	0.003621  
461.000000	0.004712  
461.500000	0.005371  
462.000000	0.005037  
462.500000	0.004363  
463.000000	0.004765  
463.500000	0.005143  
464.000000	0.004734  
464.500000	0.003765  
465.000000	0.003257  
465.500000	0.002522  
466.000000	0.001659  
466.500000	0.000515  
467.000000	0.000303  
467.500000	0.000810  
468.000000	0.001560  
468.500000	0.001598  
469.000000	0.001227  
469.500000	0.000492  
470.000000	0.000075  
470.500000	-0.000181 
471.000000	-0.000053 
471.500000	0.000287  
472.000000	0.000818  
472.500000	0.002037  
473.000000	0.002856  
473.500000	0.002818  
474.000000	0.001378  
474.500000	0.000219  
475.000000	-0.000303 
475.500000	0.000000  
476.000000	0.000000  
476.500000	0.000000  
477.000000	0.000000  
477.500000	0.000000  
478.000000	-0.000060 
478.500000	-0.000053 
479.000000	0.000409  
479.500000	0.000984  
480.000000	0.001151  
480.500000	0.000613  
481.000000	0.000075  
481.500000	-0.000121 
482.000000	0.000000  
482.500000	0.000000  
483.000000	0.000000  
483.500000	0.000000  
484.000000	0.000000  
484.500000	0.000000  
485.000000	0.000000  
485.500000	0.000000  
486.000000	0.000000  
486.500000	0.000000  
487.000000	0.000000  
487.500000	0.000000  
488.000000	0.000000  
488.500000	0.000000  
489.000000	0.000000  
489.500000	0.000000  
490.000000	0.000000  
490.500000	0.000000  
491.000000	0.000000  
491.500000	0.000000  
492.000000	0.000000  
492.500000	0.000000  
493.000000	0.000000  
493.500000	0.000000  
494.000000	0.000000  
494.500000	0.000000  
495.000000	0.000000  
495.500000	0.000000  
496.000000	0.000000  
496.500000	0.000000  
497.000000	0.000000  
497.500000	0.000000  
498.000000	0.000000  
498.500000	0.000000  
499.000000	0.000000  
499.500000	0.000000  
500.000000	0.000000  
500.500000	0.000000  
501.000000	0.000000  
501.500000	0.000000  
502.000000	0.000000  
502.500000	0.000000  
503.000000	0.000000  
503.500000	0.000000  
504.000000	0.000000  
504.500000	0.000000  
505.000000	0.000000  
505.500000	0.000000  
506.000000	0.000000  
506.500000	0.000000  
507.000000	0.000000  
507.500000	0.000000  
508.000000	0.000000  
508.500000	0.000000  
509.000000	0.000000  
509.500000	0.000000  
510.000000	0.000000  
510.500000	0.000000  
511.000000	0.000000  
511.500000	0.000000  
512.000000	0.000000  
512.500000	0.000000  
513.000000	0.000000  
513.500000	0.000000  
514.000000	0.000000  
514.500000	0.000000  
515.000000	0.000000  
515.500000	0.000000  
516.000000	0.000000  
516.500000	0.000000  
517.000000	0.000000  
517.500000	0.000000  
518.000000	0.000000  
518.500000	0.000000  
519.000000	0.000000  
519.500000	0.000000  
520.000000	0.000000  
520.500000	0.000000  
521.000000	0.000000  
521.500000	0.000000  
522.000000	0.000000  
522.500000	0.000000  
523.000000	0.000000  
523.500000	0.000000  
524.000000	0.000000  
524.500000	0.000000  
525.000000	0.000000  
525.500000	0.000000  
526.000000	0.000000  
526.500000	0.000000  
527.000000	0.000000  
527.500000	0.000000  
528.000000	0.000000  
528.500000	0.000000  
529.000000	0.000000  
529.500000	0.000000  
530.000000	0.000000  
530.500000	0.000000  
531.000000	0.000000  
531.500000	0.000000  
532.000000	0.000000  
532.500000	0.000000  
533.000000	0.000000  
533.500000	0.000000  
534.000000	0.000000  
534.500000	0.000000  
535.000000	0.000000  
535.500000	0.000000  
536.000000	0.000000  
536.500000	0.000000  
537.000000	0.000000  
537.500000	0.000000  
538.000000	0.000000  
538.500000	0.000000  
539.000000	0.000000  
539.500000	0.000000  
540.000000	0.000000  
540.500000	0.000000  
541.000000	0.000000  
541.500000	0.000000  
542.000000	0.000000  
542.500000	0.000000  
543.000000	0.000000  
543.500000	0.000000  
544.000000	0.000000  
544.500000	0.000000  
545.000000	0.000000  
545.500000	0.000000  
546.000000	0.000000  
546.500000	0.000000  
547.000000	0.000000  
547.500000	-0.000060 
548.000000	-0.000053 
548.500000	0.000409  
549.000000	0.000984  
549.500000	0.001151  
550.000000	0.000613  
550.500000	0.000075  
551.000000	-0.000121 
551.500000	0.000000  
552.000000	0.000000  
552.500000	0.000000  
553.000000	0.000000  
553.500000	0.000000  
554.000000	0.000000  
554.500000	0.000000  
555.000000	0.000000  
555.500000	0.000000  
556.000000	0.000000  
556.500000	0.000000  
557.000000	0.000000  
557.500000	0.000000  
558.000000	0.000000  
558.500000	0.000000  
559.000000	0.000000  
559.500000	0.000000  
560.000000	0.000000  
560.500000	0.000000  
561.000000	0.000000  
561.500000	0.000000  
562.000000	0.000000  
562.500000	0.000000  
563.000000	0.000000  
563.500000	0.000000  
564.000000	0.000000  
564.500000	0.000000  
565.000000	0.000000  
565.500000	0.000000  
566.000000	0.000000  
566.500000	0.000000  
567.000000	0.000000  
567.500000	0.000000  
568.000000	0.000000  
568.500000	0.000000  
569.000000	0.000000  
569.500000	0.000000  
570.000000	0.000000  
570.500000	0.000000  
571.000000	0.000000  
571.500000	0.000000  
572.000000	0.000000  
572.500000	0.000000  
573.000000	0.000000  
573.500000	0.000000  
574.000000	0.000000  
574.500000	0.000000  
575.000000	0.000000  
575.500000	0.000000  
576.000000	0.000000  
576.500000	0.000000  
577.000000	0.000000  
577.500000	0.000000  
578.000000	0.000000  
578.500000	0.000000  
579.000000	0.000000  
579.500000	0.000000  
580.000000	0.000000  

