PE FL                   SPECTRUM    ASCII       PEDS        1.60        
  -1
01#135.SP
02/03/17
02:02:36.00
02/03/17
02:04:53.00


550.000000
1









LS55
310.00
5.00
5.00
SCAN
1
20
100
100
0
100
0
1
0
1
7
ON
423 310 
1 0 0
#HDR
-1
-1
#GR
NM

0.00002384185791015625
0.0
330.000000
0.500000
441
8
0.211462
0.001780
#DATA
330.000000	0.070999 
330.500000	0.058954 
331.000000	0.047575 
331.500000	0.041931 
332.000000	0.042893 
332.500000	0.044750 
333.000000	0.045575 
333.500000	0.050901 
334.000000	0.059416 
334.500000	0.064946 
335.000000	0.058742 
335.500000	0.046628 
336.000000	0.037128 
336.500000	0.037439 
337.000000	0.041863 
337.500000	0.046893 
338.000000	0.047507 
338.500000	0.046727 
339.000000	0.043204 
339.500000	0.045401 
340.000000	0.048507 
340.500000	0.050840 
341.000000	0.047310 
341.500000	0.047939 
342.000000	0.048015 
342.500000	0.046515 
343.000000	0.039515 
343.500000	0.034780 
344.000000	0.032515 
344.500000	0.032583 
345.000000	0.033371 
345.500000	0.035371 
346.000000	0.039189 
346.500000	0.044803 
347.000000	0.046484 
347.500000	0.040446 
348.000000	0.031674 
348.500000	0.026750 
349.000000	0.025939 
349.500000	0.031999 
350.000000	0.040590 
350.500000	0.046068 
351.000000	0.039136 
351.500000	0.030916 
352.000000	0.029636 
352.500000	0.041128 
353.000000	0.050068 
353.500000	0.051681 
354.000000	0.041893 
354.500000	0.036583 
355.000000	0.036750 
355.500000	0.045128 
356.000000	0.047522 
356.500000	0.051083 
357.000000	0.053977 
357.500000	0.061863 
358.000000	0.061439 
358.500000	0.055954 
359.000000	0.045840 
359.500000	0.042803 
360.000000	0.044454 
360.500000	0.047666 
361.000000	0.047280 
361.500000	0.046901 
362.000000	0.048909 
362.500000	0.049909 
363.000000	0.045636 
363.500000	0.040143 
364.000000	0.040878 
364.500000	0.044984 
365.000000	0.045999 
365.500000	0.044196 
366.000000	0.045772 
366.500000	0.052113 
367.000000	0.057227 
367.500000	0.057984 
368.000000	0.053772 
368.500000	0.050787 
369.000000	0.051537 
369.500000	0.060886 
370.000000	0.071659 
370.500000	0.076560 
371.000000	0.070424 
371.500000	0.062666 
372.000000	0.061992 
372.500000	0.068348 
373.000000	0.070363 
373.500000	0.064954 
374.000000	0.058121 
374.500000	0.052893 
375.000000	0.054310 
375.500000	0.062053 
376.000000	0.068560 
376.500000	0.067333 
377.000000	0.063719 
377.500000	0.070613 
378.000000	0.084189 
378.500000	0.095189 
379.000000	0.099015 
379.500000	0.103000 
380.000000	0.098045 
380.500000	0.090727 
381.000000	0.085522 
381.500000	0.093272 
382.000000	0.105492 
382.500000	0.112348 
383.000000	0.109810 
383.500000	0.103401 
384.000000	0.100166 
384.500000	0.098651 
385.000000	0.102469 
385.500000	0.108984 
386.000000	0.123659 
386.500000	0.133189 
387.000000	0.135621 
387.500000	0.129136 
388.000000	0.126939 
388.500000	0.124833 
389.000000	0.131704 
389.500000	0.137939 
390.000000	0.146098 
390.500000	0.152613 
391.000000	0.157515 
391.500000	0.158393 
392.000000	0.156924 
392.500000	0.156136 
393.000000	0.154856 
393.500000	0.151446 
394.000000	0.147037 
394.500000	0.152416 
395.000000	0.157689 
395.500000	0.158780 
396.000000	0.154098 
396.500000	0.156015 
397.000000	0.161507 
397.500000	0.165628 
398.000000	0.159151 
398.500000	0.157878 
399.000000	0.163916 
399.500000	0.174007 
400.000000	0.179174 
400.500000	0.178492 
401.000000	0.177901 
401.500000	0.175227 
402.000000	0.172871 
402.500000	0.172765 
403.000000	0.180227 
403.500000	0.190469 
404.000000	0.200946 
404.500000	0.203825 
405.000000	0.200878 
405.500000	0.196795 
406.000000	0.194583 
406.500000	0.191090 
407.000000	0.183393 
407.500000	0.180416 
408.000000	0.185643 
408.500000	0.196613 
409.000000	0.200598 
409.500000	0.201833 
410.000000	0.200113 
410.500000	0.198560 
411.000000	0.197106 
411.500000	0.201984 
412.000000	0.206719 
412.500000	0.206348 
413.000000	0.196371 
413.500000	0.190492 
414.000000	0.193484 
414.500000	0.198560 
415.000000	0.196780 
415.500000	0.196553 
416.000000	0.198242 
416.500000	0.205227 
417.000000	0.207613 
417.500000	0.210196 
418.000000	0.211462 
418.500000	0.207810 
419.000000	0.202598 
419.500000	0.197113 
420.000000	0.197106 
420.500000	0.193068 
421.000000	0.194371 
421.500000	0.191507 
422.000000	0.193424 
422.500000	0.188712 
423.000000	0.191272 
423.500000	0.194712 
424.000000	0.198113 
424.500000	0.193606 
425.000000	0.192303 
425.500000	0.190015 
426.000000	0.188242 
426.500000	0.181022 
427.000000	0.183386 
427.500000	0.195598 
428.000000	0.203636 
428.500000	0.191939 
429.000000	0.171446 
429.500000	0.162454 
430.000000	0.174704 
430.500000	0.192833 
431.000000	0.201212 
431.500000	0.195257 
432.000000	0.188621 
432.500000	0.183954 
433.000000	0.186151 
433.500000	0.182439 
434.000000	0.170636 
434.500000	0.159378 
435.000000	0.159492 
435.500000	0.164946 
436.000000	0.163439 
436.500000	0.161204 
437.000000	0.158234 
437.500000	0.158878 
438.000000	0.158992 
438.500000	0.170113 
439.000000	0.178901 
439.500000	0.178719 
440.000000	0.161090 
440.500000	0.146477 
441.000000	0.143151 
441.500000	0.149992 
442.000000	0.152318 
442.500000	0.147446 
443.000000	0.139818 
443.500000	0.141560 
444.000000	0.147924 
444.500000	0.154022 
445.000000	0.150628 
445.500000	0.141939 
446.000000	0.128318 
446.500000	0.120484 
447.000000	0.109469 
447.500000	0.103348 
448.000000	0.105515 
448.500000	0.113075 
449.000000	0.115946 
449.500000	0.110772 
450.000000	0.105750 
450.500000	0.105007 
451.000000	0.110257 
451.500000	0.115113 
452.000000	0.118856 
452.500000	0.112492 
453.000000	0.106068 
453.500000	0.104689 
454.000000	0.114825 
454.500000	0.124803 
455.000000	0.130401 
455.500000	0.119340 
456.000000	0.104166 
456.500000	0.085651 
457.000000	0.079742 
457.500000	0.077765 
458.000000	0.082113 
458.500000	0.082742 
459.000000	0.087227 
459.500000	0.088621 
460.000000	0.085189 
460.500000	0.073515 
461.000000	0.063083 
461.500000	0.068553 
462.000000	0.078386 
462.500000	0.080613 
463.000000	0.066469 
463.500000	0.058484 
464.000000	0.056856 
464.500000	0.058772 
465.000000	0.051545 
465.500000	0.048689 
466.000000	0.050371 
466.500000	0.053310 
467.000000	0.052128 
467.500000	0.049030 
468.000000	0.045750 
468.500000	0.042810 
469.000000	0.043803 
469.500000	0.051242 
470.000000	0.059454 
470.500000	0.058583 
471.000000	0.052780 
471.500000	0.047348 
472.000000	0.048219 
472.500000	0.046401 
473.000000	0.042871 
473.500000	0.037257 
474.000000	0.035848 
474.500000	0.031939 
475.000000	0.028189 
475.500000	0.029174 
476.000000	0.035651 
476.500000	0.043318 
477.000000	0.042833 
477.500000	0.036689 
478.000000	0.027401 
478.500000	0.027022 
479.000000	0.034022 
479.500000	0.042424 
480.000000	0.041356 
480.500000	0.036689 
481.000000	0.031098 
481.500000	0.031772 
482.000000	0.031613 
482.500000	0.032848 
483.000000	0.031060 
483.500000	0.029795 
484.000000	0.027454 
484.500000	0.027924 
485.000000	0.028295 
485.500000	0.026931 
486.000000	0.023295 
486.500000	0.023689 
487.000000	0.028000 
487.500000	0.033098 
488.000000	0.030621 
488.500000	0.029106 
489.000000	0.029636 
489.500000	0.030651 
490.000000	0.024386 
490.500000	0.017621 
491.000000	0.014780 
491.500000	0.015598 
492.000000	0.015500 
492.500000	0.012606 
493.000000	0.009727 
493.500000	0.008590 
494.000000	0.010287 
494.500000	0.013515 
495.000000	0.019340 
495.500000	0.024280 
496.000000	0.026303 
496.500000	0.024166 
497.000000	0.020583 
497.500000	0.015280 
498.000000	0.010121 
498.500000	0.005946 
499.000000	0.004371 
499.500000	0.005553 
500.000000	0.007939 
500.500000	0.012121 
501.000000	0.017113 
501.500000	0.018128 
502.000000	0.015803 
502.500000	0.012189 
503.000000	0.011090 
503.500000	0.010840 
504.000000	0.010606 
504.500000	0.009742 
505.000000	0.008681 
505.500000	0.009181 
506.000000	0.010636 
506.500000	0.012765 
507.000000	0.015757 
507.500000	0.016113 
508.000000	0.014143 
508.500000	0.010856 
509.000000	0.011840 
509.500000	0.013340 
510.000000	0.014719 
510.500000	0.012090 
511.000000	0.010500 
511.500000	0.010113 
512.000000	0.010128 
512.500000	0.008863 
513.000000	0.007181 
513.500000	0.007159 
514.000000	0.010393 
514.500000	0.014318 
515.000000	0.014007 
515.500000	0.011250 
516.000000	0.011159 
516.500000	0.012924 
517.000000	0.011833 
517.500000	0.008378 
518.000000	0.008803 
518.500000	0.012098 
519.000000	0.014037 
519.500000	0.011674 
520.000000	0.009810 
520.500000	0.008787 
521.000000	0.009901 
521.500000	0.012871 
522.000000	0.016037 
522.500000	0.016113 
523.000000	0.011727 
523.500000	0.009113 
524.000000	0.008363 
524.500000	0.009674 
525.000000	0.008977 
525.500000	0.009659 
526.000000	0.010022 
526.500000	0.009878 
527.000000	0.007318 
527.500000	0.005568 
528.000000	0.005803 
528.500000	0.006151 
529.000000	0.007121 
529.500000	0.007287 
530.000000	0.008431 
530.500000	0.008651 
531.000000	0.010204 
531.500000	0.009371 
532.000000	0.006681 
532.500000	0.005492 
533.000000	0.007515 
533.500000	0.009787 
534.000000	0.008363 
534.500000	0.008340 
535.000000	0.010143 
535.500000	0.012022 
536.000000	0.011803 
536.500000	0.010780 
537.000000	0.009606 
537.500000	0.008643 
538.000000	0.008825 
538.500000	0.008939 
539.000000	0.006545 
539.500000	0.003068 
540.000000	0.003681 
540.500000	0.008590 
541.000000	0.011659 
541.500000	0.010007 
542.000000	0.006719 
542.500000	0.003848 
543.000000	0.003045 
543.500000	0.003462 
544.000000	0.007454 
544.500000	0.012166 
545.000000	0.014598 
545.500000	0.012121 
546.000000	0.009515 
546.500000	0.007159 
547.000000	0.005553 
547.500000	0.002015 
548.000000	0.001780 
548.500000	0.003977 
549.000000	0.008053 
549.500000	0.008818 
550.000000	0.006999 

