PE FL                   SPECTRUM    ASCII       PEDS        1.60        
  -1
01#156.SP
02/03/17
03:58:42.00
02/03/17
04:00:42.00


420.500000
1









LS55
300.00
5.00
5.00
SCAN
1
20
100
100
0
100
0
1
0
1
7
ON
650 300 
1 0 0
#HDR
-1
-1
#GR
NM

0.00002384185791015625
0.0
250.000000
0.500000
342
8
1.556628
-0.000409
#DATA
250.000000	0.000000  
250.500000	0.000000  
251.000000	0.000000  
251.500000	0.000000  
252.000000	0.000000  
252.500000	0.000000  
253.000000	0.000000  
253.500000	0.000000  
254.000000	0.000000  
254.500000	0.000000  
255.000000	0.000000  
255.500000	0.000000  
256.000000	0.000000  
256.500000	0.000000  
257.000000	0.000000  
257.500000	0.000000  
258.000000	0.000000  
258.500000	0.000000  
259.000000	0.000000  
259.500000	0.000000  
260.000000	0.000000  
260.500000	0.000000  
261.000000	0.000000  
261.500000	0.000000  
262.000000	0.000000  
262.500000	0.000000  
263.000000	0.000000  
263.500000	0.000000  
264.000000	0.000000  
264.500000	0.000000  
265.000000	0.000000  
265.500000	0.000000  
266.000000	0.000000  
266.500000	0.000000  
267.000000	0.000000  
267.500000	0.000000  
268.000000	0.000000  
268.500000	0.000000  
269.000000	0.000000  
269.500000	0.000000  
270.000000	0.000000  
270.500000	0.000000  
271.000000	0.000000  
271.500000	0.000000  
272.000000	0.000000  
272.500000	0.000000  
273.000000	0.000000  
273.500000	0.000000  
274.000000	0.000000  
274.500000	0.000000  
275.000000	0.000000  
275.500000	0.000000  
276.000000	0.000000  
276.500000	0.000000  
277.000000	0.000000  
277.500000	0.000000  
278.000000	0.000000  
278.500000	0.000000  
279.000000	0.000000  
279.500000	0.000000  
280.000000	0.000000  
280.500000	0.000000  
281.000000	0.000000  
281.500000	0.000000  
282.000000	0.000000  
282.500000	0.000000  
283.000000	0.000000  
283.500000	0.000000  
284.000000	0.000000  
284.500000	0.000000  
285.000000	0.000000  
285.500000	0.000000  
286.000000	0.000000  
286.500000	0.000000  
287.000000	0.000000  
287.500000	0.000000  
288.000000	0.000000  
288.500000	0.000000  
289.000000	0.000000  
289.500000	0.000000  
290.000000	0.000000  
290.500000	0.000000  
291.000000	0.000000  
291.500000	-0.000121 
292.000000	-0.000409 
292.500000	-0.000295 
293.000000	0.000909  
293.500000	0.008401  
294.000000	0.026310  
294.500000	0.062462  
295.000000	0.130075  
295.500000	0.224181  
296.000000	0.324303  
296.500000	0.422795  
297.000000	0.535939  
297.500000	0.675840  
298.000000	0.830492  
298.500000	0.977818  
299.000000	1.112363  
299.500000	1.234159  
300.000000	1.337356  
300.500000	1.425787  
301.000000	1.504143  
301.500000	1.556628  
302.000000	1.545863  
302.500000	1.466863  
303.000000	1.348310  
303.500000	1.235227  
304.000000	1.116053  
304.500000	0.977969  
305.000000	0.814106  
305.500000	0.660916  
306.000000	0.529030  
306.500000	0.423871  
307.000000	0.326151  
307.500000	0.240780  
308.000000	0.170772  
308.500000	0.123537  
309.000000	0.087499  
309.500000	0.060621  
310.000000	0.047613  
310.500000	0.053265  
311.000000	0.061704  
311.500000	0.062583  
312.000000	0.055704  
312.500000	0.054348  
313.000000	0.058333  
313.500000	0.062431  
314.000000	0.060492  
314.500000	0.063015  
315.000000	0.067045  
315.500000	0.074174  
316.000000	0.079856  
316.500000	0.088098  
317.000000	0.087939  
317.500000	0.081007  
318.000000	0.069553  
318.500000	0.068886  
319.000000	0.073954  
319.500000	0.075977  
320.000000	0.075007  
320.500000	0.076772  
321.000000	0.081598  
321.500000	0.087598  
322.000000	0.089295  
322.500000	0.085545  
323.000000	0.081568  
323.500000	0.086499  
324.000000	0.092840  
324.500000	0.092598  
325.000000	0.078954  
325.500000	0.070356  
326.000000	0.073750  
326.500000	0.084681  
327.000000	0.090416  
327.500000	0.088492  
328.000000	0.087196  
328.500000	0.089795  
329.000000	0.089507  
329.500000	0.077537  
330.000000	0.068000  
330.500000	0.069962  
331.000000	0.074416  
331.500000	0.070477  
332.000000	0.059242  
332.500000	0.058553  
333.000000	0.065386  
333.500000	0.075628  
334.000000	0.074659  
334.500000	0.070583  
335.000000	0.059060  
335.500000	0.050318  
336.000000	0.039833  
336.500000	0.035962  
337.000000	0.042310  
337.500000	0.051174  
338.000000	0.047537  
338.500000	0.042068  
339.000000	0.046272  
339.500000	0.055098  
340.000000	0.050219  
340.500000	0.034984  
341.000000	0.029045  
341.500000	0.040492  
342.000000	0.050606  
342.500000	0.046507  
343.000000	0.033249  
343.500000	0.026507  
344.000000	0.037166  
344.500000	0.052931  
345.000000	0.057431  
345.500000	0.049386  
346.000000	0.039348  
346.500000	0.035166  
347.000000	0.033227  
347.500000	0.034416  
348.000000	0.037128  
348.500000	0.039060  
349.000000	0.030030  
349.500000	0.017704  
350.000000	0.009977  
350.500000	0.014045  
351.000000	0.022098  
351.500000	0.028810  
352.000000	0.032613  
352.500000	0.035287  
353.000000	0.032159  
353.500000	0.022651  
354.000000	0.010992  
354.500000	0.004106  
355.000000	0.004810  
355.500000	0.013196  
356.000000	0.024598  
356.500000	0.030628  
357.000000	0.028492  
357.500000	0.024734  
358.000000	0.025174  
358.500000	0.023696  
359.000000	0.016106  
359.500000	0.011606  
360.000000	0.012727  
360.500000	0.015212  
361.000000	0.012871  
361.500000	0.011333  
362.000000	0.012219  
362.500000	0.014666  
363.000000	0.014265  
363.500000	0.013643  
364.000000	0.012818  
364.500000	0.012181  
365.000000	0.010575  
365.500000	0.008651  
366.000000	0.005113  
366.500000	0.003727  
367.000000	0.003015  
367.500000	0.004378  
368.000000	0.006136  
368.500000	0.008287  
369.000000	0.009727  
369.500000	0.009234  
370.000000	0.009515  
370.500000	0.008999  
371.000000	0.007909  
371.500000	0.003712  
372.000000	0.000833  
372.500000	0.000295  
373.000000	0.002060  
373.500000	0.002628  
374.000000	0.001734  
374.500000	0.001446  
375.000000	0.002659  
375.500000	0.003954  
376.000000	0.003840  
376.500000	0.002439  
377.000000	0.001189  
377.500000	0.000075  
378.000000	0.000083  
378.500000	0.001757  
379.000000	0.004969  
379.500000	0.009454  
380.000000	0.011507  
380.500000	0.010075  
381.000000	0.005931  
381.500000	0.003143  
382.000000	0.001916  
382.500000	0.001787  
383.000000	0.001143  
383.500000	0.000795  
384.000000	0.000962  
384.500000	0.001007  
385.000000	0.001378  
385.500000	0.001424  
386.000000	0.001469  
386.500000	0.002363  
387.000000	0.003409  
387.500000	0.003181  
388.000000	0.001803  
388.500000	0.000742  
389.000000	0.002159  
389.500000	0.004462  
390.000000	0.005219  
390.500000	0.003659  
391.000000	0.002787  
391.500000	0.002871  
392.000000	0.003348  
392.500000	0.002454  
393.000000	0.003787  
393.500000	0.006878  
394.000000	0.009628  
394.500000	0.008507  
395.000000	0.005848  
395.500000	0.003310  
396.000000	0.003325  
396.500000	0.004613  
397.000000	0.005840  
397.500000	0.005015  
398.000000	0.003575  
398.500000	0.002659  
399.000000	0.002750  
399.500000	0.002606  
400.000000	0.003121  
400.500000	0.003537  
401.000000	0.004136  
401.500000	0.003416  
402.000000	0.004143  
402.500000	0.004522  
403.000000	0.004674  
403.500000	0.003727  
404.000000	0.004590  
404.500000	0.005280  
405.000000	0.004666  
405.500000	0.004742  
406.000000	0.006393  
406.500000	0.007833  
407.000000	0.006007  
407.500000	0.003386  
408.000000	0.001689  
408.500000	0.002621  
409.000000	0.003492  
409.500000	0.004560  
410.000000	0.004469  
410.500000	0.006356  
411.000000	0.008287  
411.500000	0.009613  
412.000000	0.006393  
412.500000	0.003689  
413.000000	0.001219  
413.500000	0.001151  
414.000000	0.003265  
414.500000	0.007787  
415.000000	0.011500  
415.500000	0.010651  
416.000000	0.007416  
416.500000	0.005204  
417.000000	0.005613  
417.500000	0.005295  
418.000000	0.004265  
418.500000	0.003333  
419.000000	0.003318  
419.500000	0.003825  
420.000000	0.005363  
420.500000	0.008999  

