PE FL                   SPECTRUM    ASCII       PEDS        1.60        
  -1
01#153.SP
02/03/17
03:42:59.00
02/03/17
03:45:40.00


580.000000
1









LS55
310.00
5.00
5.00
SCAN
1
20
100
100
0
100
0
1
0
1
7
ON
580 310 
1 0 0
#HDR
-1
-1
#GR
NM

0.00002384185791015625
0.0
330.000000
0.500000
501
8
0.088962
-0.000068
#DATA
330.000000	0.032000  
330.500000	0.070325  
331.000000	0.086901  
331.500000	0.088962  
332.000000	0.086818  
332.500000	0.086393  
333.000000	0.077340  
333.500000	0.074325  
334.000000	0.076636  
334.500000	0.081606  
335.000000	0.074446  
335.500000	0.062537  
336.000000	0.057280  
336.500000	0.061674  
337.000000	0.066136  
337.500000	0.060530  
338.000000	0.054833  
338.500000	0.051212  
339.000000	0.053530  
339.500000	0.056303  
340.000000	0.055765  
340.500000	0.047803  
341.000000	0.042462  
341.500000	0.048075  
342.000000	0.058106  
342.500000	0.060568  
343.000000	0.057143  
343.500000	0.054825  
344.000000	0.057325  
344.500000	0.059492  
345.000000	0.057848  
345.500000	0.050159  
346.000000	0.042272  
346.500000	0.037946  
347.000000	0.036212  
347.500000	0.039424  
348.000000	0.041909  
348.500000	0.043969  
349.000000	0.041840  
349.500000	0.043257  
350.000000	0.047787  
350.500000	0.049765  
351.000000	0.041075  
351.500000	0.028992  
352.000000	0.022568  
352.500000	0.023984  
353.000000	0.031356  
353.500000	0.034424  
354.000000	0.033257  
354.500000	0.030477  
355.000000	0.031856  
355.500000	0.032053  
356.000000	0.029689  
356.500000	0.023803  
357.000000	0.021916  
357.500000	0.022977  
358.000000	0.023598  
358.500000	0.022734  
359.000000	0.025409  
359.500000	0.031234  
360.000000	0.033946  
360.500000	0.032250  
361.000000	0.030242  
361.500000	0.034136  
362.000000	0.036628  
362.500000	0.036840  
363.000000	0.033946  
363.500000	0.036439  
364.000000	0.041250  
364.500000	0.043810  
365.000000	0.036522  
365.500000	0.027750  
366.000000	0.032151  
366.500000	0.044409  
367.000000	0.050840  
367.500000	0.039234  
368.000000	0.029196  
368.500000	0.027636  
369.000000	0.033840  
369.500000	0.036530  
370.000000	0.034909  
370.500000	0.038128  
371.000000	0.044265  
371.500000	0.050765  
372.000000	0.044272  
372.500000	0.036378  
373.000000	0.025742  
373.500000	0.023128  
374.000000	0.023871  
374.500000	0.032848  
375.000000	0.041409  
375.500000	0.039901  
376.000000	0.028303  
376.500000	0.019621  
377.000000	0.019000  
377.500000	0.021363  
378.000000	0.022159  
378.500000	0.021833  
379.000000	0.021984  
379.500000	0.021704  
380.000000	0.021931  
380.500000	0.023590  
381.000000	0.025242  
381.500000	0.023075  
382.000000	0.021431  
382.500000	0.023068  
383.000000	0.026810  
383.500000	0.028568  
384.000000	0.025462  
384.500000	0.019848  
385.000000	0.016522  
385.500000	0.017204  
386.000000	0.021469  
386.500000	0.023181  
387.000000	0.021401  
387.500000	0.016128  
388.000000	0.014098  
388.500000	0.016272  
389.000000	0.022325  
389.500000	0.025674  
390.000000	0.024553  
390.500000	0.023227  
391.000000	0.022750  
391.500000	0.020537  
392.000000	0.015469  
392.500000	0.011083  
393.000000	0.011901  
393.500000	0.016295  
394.000000	0.021583  
394.500000	0.024196  
395.000000	0.027924  
395.500000	0.030530  
396.000000	0.031977  
396.500000	0.028568  
397.000000	0.024151  
397.500000	0.023242  
398.000000	0.029007  
398.500000	0.036545  
399.000000	0.038318  
399.500000	0.036287  
400.000000	0.033007  
400.500000	0.032219  
401.000000	0.026439  
401.500000	0.016886  
402.000000	0.011121  
402.500000	0.016143  
403.000000	0.024893  
403.500000	0.028234  
404.000000	0.027909  
404.500000	0.025939  
405.000000	0.022977  
405.500000	0.019212  
406.000000	0.019840  
406.500000	0.021992  
407.000000	0.022242  
407.500000	0.021446  
408.000000	0.026037  
408.500000	0.030727  
409.000000	0.030734  
409.500000	0.027250  
410.000000	0.026234  
410.500000	0.025681  
411.000000	0.026128  
411.500000	0.024371  
412.000000	0.022931  
412.500000	0.020666  
413.000000	0.020401  
413.500000	0.020840  
414.000000	0.023068  
414.500000	0.023704  
415.000000	0.022803  
415.500000	0.020113  
416.000000	0.016174  
416.500000	0.015962  
417.000000	0.018840  
417.500000	0.021015  
418.000000	0.019007  
418.500000	0.018522  
419.000000	0.026030  
419.500000	0.036083  
420.000000	0.040674  
420.500000	0.039454  
421.000000	0.038712  
421.500000	0.036462  
422.000000	0.029348  
422.500000	0.021651  
423.000000	0.019310  
423.500000	0.024787  
424.000000	0.027977  
424.500000	0.026212  
425.000000	0.021537  
425.500000	0.023060  
426.000000	0.027992  
426.500000	0.028863  
427.000000	0.022371  
427.500000	0.014946  
428.000000	0.014227  
428.500000	0.018242  
429.000000	0.021803  
429.500000	0.018666  
430.000000	0.013409  
430.500000	0.011901  
431.000000	0.014719  
431.500000	0.017280  
432.000000	0.021977  
432.500000	0.024696  
433.000000	0.025500  
433.500000	0.020666  
434.000000	0.020136  
434.500000	0.020515  
435.000000	0.021590  
435.500000	0.017219  
436.000000	0.016128  
436.500000	0.014560  
437.000000	0.012984  
437.500000	0.009204  
438.000000	0.008507  
438.500000	0.009174  
439.000000	0.010431  
439.500000	0.011787  
440.000000	0.014378  
440.500000	0.018598  
441.000000	0.019992  
441.500000	0.020022  
442.000000	0.019318  
442.500000	0.021219  
443.000000	0.020757  
443.500000	0.021878  
444.000000	0.022757  
444.500000	0.023878  
445.000000	0.021378  
445.500000	0.016325  
446.000000	0.013409  
446.500000	0.016030  
447.000000	0.018363  
447.500000	0.018454  
448.000000	0.016128  
448.500000	0.015628  
449.000000	0.014651  
449.500000	0.011840  
450.000000	0.009704  
450.500000	0.013606  
451.000000	0.017946  
451.500000	0.016371  
452.000000	0.011174  
452.500000	0.007515  
453.000000	0.009772  
453.500000	0.012689  
454.000000	0.013659  
454.500000	0.010772  
455.000000	0.007469  
455.500000	0.005977  
456.000000	0.007303  
456.500000	0.009689  
457.000000	0.011007  
457.500000	0.011128  
458.000000	0.009227  
458.500000	0.007666  
459.000000	0.007659  
459.500000	0.009181  
460.000000	0.009734  
460.500000	0.007553  
461.000000	0.006704  
461.500000	0.009015  
462.000000	0.013143  
462.500000	0.014431  
463.000000	0.013174  
463.500000	0.012575  
464.000000	0.012803  
464.500000	0.012045  
465.000000	0.009159  
465.500000	0.007121  
466.000000	0.006166  
466.500000	0.008030  
467.000000	0.010007  
467.500000	0.011530  
468.000000	0.010477  
468.500000	0.008090  
469.000000	0.005106  
469.500000	0.004946  
470.000000	0.007651  
470.500000	0.011060  
471.000000	0.009916  
471.500000	0.006818  
472.000000	0.007946  
472.500000	0.012083  
473.000000	0.014674  
473.500000	0.013598  
474.000000	0.011840  
474.500000	0.009537  
475.000000	0.007454  
475.500000	0.006613  
476.000000	0.007159  
476.500000	0.006280  
477.000000	0.003174  
477.500000	0.001507  
478.000000	0.001348  
478.500000	0.002333  
479.000000	0.003287  
479.500000	0.004795  
480.000000	0.005613  
480.500000	0.005787  
481.000000	0.006113  
481.500000	0.006560  
482.000000	0.006757  
482.500000	0.006848  
483.000000	0.006560  
483.500000	0.006143  
484.000000	0.005500  
484.500000	0.005340  
485.000000	0.005037  
485.500000	0.004090  
486.000000	0.002787  
486.500000	0.003242  
487.000000	0.004606  
487.500000	0.004977  
488.000000	0.006060  
488.500000	0.007257  
489.000000	0.008053  
489.500000	0.005477  
490.000000	0.002590  
490.500000	0.001537  
491.000000	0.003477  
491.500000	0.005401  
492.000000	0.006310  
492.500000	0.006000  
493.000000	0.004022  
493.500000	0.001878  
494.000000	0.000212  
494.500000	0.000363  
495.000000	0.000742  
495.500000	0.000803  
496.000000	0.001643  
496.500000	0.003083  
497.000000	0.004348  
497.500000	0.003242  
498.000000	0.001401  
498.500000	0.000371  
499.000000	0.001946  
499.500000	0.003212  
500.000000	0.003242  
500.500000	0.001871  
501.000000	0.001257  
501.500000	0.001962  
502.000000	0.003992  
502.500000	0.005416  
503.000000	0.005393  
503.500000	0.003628  
504.000000	0.001712  
504.500000	0.000689  
505.000000	0.000848  
505.500000	0.001469  
506.000000	0.002015  
506.500000	0.001704  
507.000000	0.000636  
507.500000	0.000242  
508.000000	0.000636  
508.500000	0.001984  
509.000000	0.003204  
509.500000	0.003628  
510.000000	0.002712  
510.500000	0.002590  
511.000000	0.003522  
511.500000	0.004568  
512.000000	0.003659  
512.500000	0.002151  
513.000000	0.000962  
513.500000	0.001901  
514.000000	0.004053  
514.500000	0.006234  
515.000000	0.006007  
515.500000	0.004401  
516.000000	0.002363  
516.500000	0.001075  
517.000000	0.001833  
517.500000	0.004068  
518.000000	0.007204  
518.500000	0.008136  
519.000000	0.007196  
519.500000	0.004613  
520.000000	0.002310  
520.500000	0.001916  
521.000000	0.003446  
521.500000	0.004628  
522.000000	0.003484  
522.500000	0.001893  
523.000000	0.000749  
523.500000	0.000901  
524.000000	0.000999  
524.500000	0.000977  
525.000000	0.000962  
525.500000	0.000765  
526.000000	0.001045  
526.500000	0.003318  
527.000000	0.006060  
527.500000	0.006909  
528.000000	0.004575  
528.500000	0.001863  
529.000000	0.001030  
529.500000	0.001477  
530.000000	0.001166  
530.500000	0.000318  
531.000000	0.000318  
531.500000	0.001750  
532.000000	0.003272  
532.500000	0.003189  
533.000000	0.002462  
533.500000	0.002340  
534.000000	0.002439  
534.500000	0.001378  
535.000000	-0.000068 
535.500000	0.000416  
536.000000	0.003128  
536.500000	0.004924  
537.000000	0.003946  
537.500000	0.001613  
538.000000	0.002878  
538.500000	0.006030  
539.000000	0.007068  
539.500000	0.004984  
540.000000	0.003462  
540.500000	0.003106  
541.000000	0.003204  
541.500000	0.002666  
542.000000	0.002075  
542.500000	0.001037  
543.000000	0.001606  
543.500000	0.004098  
544.000000	0.006606  
544.500000	0.004946  
545.000000	0.002098  
545.500000	0.000909  
546.000000	0.002083  
546.500000	0.002977  
547.000000	0.002772  
547.500000	0.002128  
548.000000	0.002053  
548.500000	0.002946  
549.000000	0.005462  
549.500000	0.007234  
550.000000	0.007166  
550.500000	0.003969  
551.000000	0.001484  
551.500000	0.000356  
552.000000	0.000818  
552.500000	0.000393  
553.000000	0.002242  
553.500000	0.006348  
554.000000	0.009575  
554.500000	0.008704  
555.000000	0.005090  
555.500000	0.002674  
556.000000	0.002356  
556.500000	0.002643  
557.000000	0.002037  
557.500000	0.002515  
558.000000	0.003962  
558.500000	0.007060  
559.000000	0.007878  
559.500000	0.006848  
560.000000	0.005196  
560.500000	0.005340  
561.000000	0.005037  
561.500000	0.004151  
562.000000	0.002780  
562.500000	0.002477  
563.000000	0.004189  
563.500000	0.006803  
564.000000	0.009015  
564.500000	0.008765  
565.000000	0.006507  
565.500000	0.003689  
566.000000	0.003780  
566.500000	0.007151  
567.000000	0.010401  
567.500000	0.010083  
568.000000	0.007257  
568.500000	0.006378  
569.000000	0.007545  
569.500000	0.009098  
570.000000	0.008151  
570.500000	0.005537  
571.000000	0.002840  
571.500000	0.002954  
572.000000	0.004628  
572.500000	0.006530  
573.000000	0.006136  
573.500000	0.004931  
574.000000	0.004151  
574.500000	0.005159  
575.000000	0.006749  
575.500000	0.007825  
576.000000	0.008022  
576.500000	0.011409  
577.000000	0.015212  
577.500000	0.016439  
578.000000	0.013053  
578.500000	0.009803  
579.000000	0.007795  
579.500000	0.007810  
580.000000	0.007000  

