PE FL                   SPECTRUM    ASCII       PEDS        1.60        
  -1
01#139.SP
02/03/17
02:19:35.00
02/03/17
02:21:30.00


400.000000
1









LS55
430.00
5.00
5.00
SCAN
1
20
100
100
0
100
0
0
0
1
7
ON
550 310 
1 0 0
#HDR
-1
-1
#GR
NM

0.00002384185791015625
0.0
220.000000
0.500000
361
8
0.079022
-0.000719
#DATA
220.000000	0.000000  
220.500000	0.000000  
221.000000	0.000000  
221.500000	0.000000  
222.000000	0.000000  
222.500000	0.000000  
223.000000	0.000000  
223.500000	0.000000  
224.000000	0.000000  
224.500000	0.000000  
225.000000	0.000000  
225.500000	0.000000  
226.000000	-0.000121 
226.500000	-0.000106 
227.000000	0.000818  
227.500000	0.001787  
228.000000	0.001962  
228.500000	0.002659  
229.000000	0.003924  
229.500000	0.004530  
230.000000	0.002659  
230.500000	0.000431  
231.000000	-0.000545 
231.500000	0.000000  
232.000000	0.000000  
232.500000	0.000000  
233.000000	-0.000121 
233.500000	-0.000287 
234.000000	0.001022  
234.500000	0.002787  
235.000000	0.003621  
235.500000	0.002045  
236.000000	0.000356  
236.500000	-0.000545 
237.000000	-0.000227 
237.500000	0.000954  
238.000000	0.002515  
238.500000	0.003181  
239.000000	0.001772  
239.500000	0.000287  
240.000000	-0.000484 
240.500000	-0.000227 
241.000000	0.000712  
241.500000	0.002787  
242.000000	0.004272  
242.500000	0.003530  
243.000000	0.001318  
243.500000	-0.000265 
244.000000	0.000303  
244.500000	0.001530  
245.000000	0.001969  
245.500000	0.000984  
246.000000	0.000757  
246.500000	0.001287  
247.000000	0.001848  
247.500000	0.000878  
248.000000	0.001575  
248.500000	0.003257  
249.000000	0.004333  
249.500000	0.002386  
250.000000	0.000363  
250.500000	-0.000484 
251.000000	0.000000  
251.500000	0.000000  
252.000000	0.000000  
252.500000	0.000000  
253.000000	0.000000  
253.500000	0.000000  
254.000000	-0.000121 
254.500000	-0.000166 
255.000000	0.000886  
255.500000	0.002242  
256.000000	0.002742  
256.500000	0.001500  
257.000000	0.000159  
257.500000	-0.000719 
258.000000	0.000030  
258.500000	0.003507  
259.000000	0.007212  
259.500000	0.007856  
260.000000	0.004848  
260.500000	0.002371  
261.000000	0.001393  
261.500000	0.001060  
262.000000	0.001037  
262.500000	0.002000  
263.000000	0.002621  
263.500000	0.001333  
264.000000	0.000984  
264.500000	0.001772  
265.000000	0.003628  
265.500000	0.003621  
266.000000	0.002856  
266.500000	0.001893  
267.000000	0.002083  
267.500000	0.002818  
268.000000	0.003196  
268.500000	0.002454  
269.000000	0.000984  
269.500000	0.000151  
270.000000	-0.000242 
270.500000	-0.000181 
271.000000	-0.000340 
271.500000	0.001310  
272.000000	0.003363  
272.500000	0.004962  
273.000000	0.006477  
273.500000	0.009734  
274.000000	0.011893  
274.500000	0.009999  
275.000000	0.006462  
275.500000	0.004575  
276.000000	0.004439  
276.500000	0.002356  
277.000000	0.000075  
277.500000	-0.000643 
278.000000	0.002272  
278.500000	0.008204  
279.000000	0.012356  
279.500000	0.012560  
280.000000	0.008598  
280.500000	0.006386  
281.000000	0.004613  
281.500000	0.003742  
282.000000	0.002810  
282.500000	0.004189  
283.000000	0.007272  
283.500000	0.009310  
284.000000	0.010712  
284.500000	0.010295  
285.000000	0.009659  
285.500000	0.007113  
286.000000	0.005833  
286.500000	0.006515  
287.000000	0.008212  
287.500000	0.007045  
288.000000	0.003409  
288.500000	0.001696  
289.000000	0.002719  
289.500000	0.003734  
290.000000	0.002560  
290.500000	0.000734  
291.000000	0.000378  
291.500000	0.000962  
292.000000	0.002068  
292.500000	0.002143  
293.000000	0.001674  
293.500000	0.000590  
294.000000	0.000560  
294.500000	0.001022  
295.000000	0.002000  
295.500000	0.001810  
296.000000	0.001242  
296.500000	0.000840  
297.000000	0.001060  
297.500000	0.000969  
298.000000	0.000499  
298.500000	0.000431  
299.000000	0.001030  
299.500000	0.001500  
300.000000	0.003636  
300.500000	0.006204  
301.000000	0.008378  
301.500000	0.008916  
302.000000	0.010053  
302.500000	0.014409  
303.000000	0.020924  
303.500000	0.027568  
304.000000	0.028803  
304.500000	0.027272  
305.000000	0.023166  
305.500000	0.025424  
306.000000	0.028939  
306.500000	0.033212  
307.000000	0.032689  
307.500000	0.031613  
308.000000	0.028143  
308.500000	0.025931  
309.000000	0.027515  
309.500000	0.032962  
310.000000	0.038166  
310.500000	0.039030  
311.000000	0.041810  
311.500000	0.043166  
312.000000	0.045590  
312.500000	0.040022  
313.000000	0.033825  
313.500000	0.023590  
314.000000	0.016522  
314.500000	0.011416  
315.000000	0.014598  
315.500000	0.020636  
316.000000	0.025780  
316.500000	0.026090  
317.000000	0.023181  
317.500000	0.019409  
318.000000	0.016371  
318.500000	0.014704  
319.000000	0.018272  
319.500000	0.020916  
320.000000	0.019848  
320.500000	0.011803  
321.000000	0.007984  
321.500000	0.007166  
322.000000	0.008848  
322.500000	0.006196  
323.000000	0.005962  
323.500000	0.007954  
324.000000	0.010924  
324.500000	0.013325  
325.000000	0.016621  
325.500000	0.022060  
326.000000	0.021780  
326.500000	0.020030  
327.000000	0.017030  
327.500000	0.016772  
328.000000	0.012409  
328.500000	0.008181  
329.000000	0.005333  
329.500000	0.005590  
330.000000	0.004863  
330.500000	0.004560  
331.000000	0.007946  
331.500000	0.012151  
332.000000	0.013484  
332.500000	0.009969  
333.000000	0.005659  
333.500000	0.003878  
334.000000	0.006795  
334.500000	0.010265  
335.000000	0.011765  
335.500000	0.009704  
336.000000	0.007772  
336.500000	0.009681  
337.000000	0.011901  
337.500000	0.013909  
338.000000	0.015181  
338.500000	0.017886  
339.000000	0.017878  
339.500000	0.015621  
340.000000	0.011757  
340.500000	0.011825  
341.000000	0.014553  
341.500000	0.017287  
342.000000	0.017462  
342.500000	0.015151  
343.000000	0.011295  
343.500000	0.007674  
344.000000	0.005545  
344.500000	0.006045  
345.000000	0.010022  
345.500000	0.014030  
346.000000	0.015628  
346.500000	0.012371  
347.000000	0.008545  
347.500000	0.008234  
348.000000	0.013287  
348.500000	0.019151  
349.000000	0.021939  
349.500000	0.022151  
350.000000	0.020280  
350.500000	0.017113  
351.000000	0.012734  
351.500000	0.011750  
352.000000	0.014522  
352.500000	0.022007  
353.000000	0.027121  
353.500000	0.030000  
354.000000	0.027053  
354.500000	0.022818  
355.000000	0.019227  
355.500000	0.019772  
356.000000	0.022022  
356.500000	0.024378  
357.000000	0.026431  
357.500000	0.027704  
358.000000	0.028984  
358.500000	0.030356  
359.000000	0.032757  
359.500000	0.036204  
360.000000	0.036848  
360.500000	0.033303  
361.000000	0.026621  
361.500000	0.021628  
362.000000	0.021340  
362.500000	0.024598  
363.000000	0.028166  
363.500000	0.028500  
364.000000	0.030871  
364.500000	0.031590  
365.000000	0.029992  
365.500000	0.025871  
366.000000	0.024840  
366.500000	0.026492  
367.000000	0.031204  
367.500000	0.036583  
368.000000	0.042431  
368.500000	0.045613  
369.000000	0.045265  
369.500000	0.043613  
370.000000	0.042401  
370.500000	0.042780  
371.000000	0.045969  
371.500000	0.053984  
372.000000	0.058946  
372.500000	0.064568  
373.000000	0.070704  
373.500000	0.079022  
374.000000	0.077772  
374.500000	0.068780  
375.000000	0.056840  
375.500000	0.054083  
376.000000	0.057265  
376.500000	0.060598  
377.000000	0.061651  
377.500000	0.061810  
378.000000	0.057522  
378.500000	0.046128  
379.000000	0.038613  
379.500000	0.040537  
380.000000	0.048128  
380.500000	0.048613  
381.000000	0.046310  
381.500000	0.046303  
382.000000	0.050878  
382.500000	0.052924  
383.000000	0.048772  
383.500000	0.038598  
384.000000	0.026992  
384.500000	0.029750  
385.000000	0.040280  
385.500000	0.048280  
386.000000	0.047151  
386.500000	0.048068  
387.000000	0.051136  
387.500000	0.052969  
388.000000	0.050530  
388.500000	0.048659  
389.000000	0.045810  
389.500000	0.039340  
390.000000	0.035613  
390.500000	0.038795  
391.000000	0.044901  
391.500000	0.046848  
392.000000	0.046954  
392.500000	0.046196  
393.000000	0.046977  
393.500000	0.043393  
394.000000	0.042954  
394.500000	0.045962  
395.000000	0.050583  
395.500000	0.051030  
396.000000	0.046878  
396.500000	0.038666  
397.000000	0.034409  
397.500000	0.039545  
398.000000	0.047901  
398.500000	0.048659  
399.000000	0.043318  
399.500000	0.046795  
400.000000	0.065999  

