PE FL                   SPECTRUM    ASCII       PEDS        1.60        
  -1
01#140.SP
02/03/17
02:22:00.00
02/03/17
02:29:21.00


410.000000
1









LS55
430.00
5.00
5.00
SCAN
1
20
100
100
0
25
0
0
0
1
7
ON
430 400 
1 0 0
#HDR
-1
-1
#GR
NM

0.00002384185791015625
0.0
230.000000
0.500000
361
8
0.062871
-0.000416
#DATA
230.000000	0.000000  
230.500000	0.000000  
231.000000	0.000000  
231.500000	0.000000  
232.000000	0.000000  
232.500000	0.000000  
233.000000	0.000000  
233.500000	0.000000  
234.000000	0.000000  
234.500000	0.000000  
235.000000	0.000000  
235.500000	0.000000  
236.000000	0.000000  
236.500000	0.000000  
237.000000	0.000000  
237.500000	0.000000  
238.000000	0.000000  
238.500000	0.000000  
239.000000	0.000000  
239.500000	0.000000  
240.000000	0.000000  
240.500000	0.000000  
241.000000	0.000000  
241.500000	0.000000  
242.000000	0.000000  
242.500000	0.000000  
243.000000	0.000000  
243.500000	0.000000  
244.000000	0.000000  
244.500000	0.000000  
245.000000	0.000000  
245.500000	0.000000  
246.000000	0.000000  
246.500000	-0.000060 
247.000000	-0.000174 
247.500000	0.000545  
248.000000	0.001530  
248.500000	0.002030  
249.000000	0.001159  
249.500000	0.000212  
250.000000	-0.000242 
250.500000	0.000000  
251.000000	0.000000  
251.500000	0.000000  
252.000000	0.000000  
252.500000	0.000000  
253.000000	0.000000  
253.500000	0.000000  
254.000000	0.000000  
254.500000	0.000000  
255.000000	-0.000121 
255.500000	-0.000106 
256.000000	0.000818  
256.500000	0.001969  
257.000000	0.002303  
257.500000	0.001227  
258.000000	0.000090  
258.500000	-0.000416 
259.000000	0.000545  
259.500000	0.001530  
260.000000	0.002030  
260.500000	0.001159  
261.000000	0.000212  
261.500000	-0.000242 
262.000000	0.000000  
262.500000	0.000000  
263.000000	0.000000  
263.500000	0.000000  
264.000000	0.000000  
264.500000	0.000000  
265.000000	-0.000121 
265.500000	-0.000106 
266.000000	0.000818  
266.500000	0.001969  
267.000000	0.002303  
267.500000	0.001106  
268.000000	0.000045  
268.500000	0.000575  
269.000000	0.001969  
269.500000	0.002303  
270.000000	0.001227  
270.500000	0.000151  
271.000000	-0.000242 
271.500000	-0.000121 
272.000000	-0.000227 
272.500000	0.000590  
273.000000	0.002681  
273.500000	0.004969  
274.000000	0.005393  
274.500000	0.004500  
275.000000	0.003106  
275.500000	0.002151  
276.000000	0.000749  
276.500000	0.000462  
277.000000	0.001659  
277.500000	0.004106  
278.000000	0.004659  
278.500000	0.003166  
279.000000	0.001500  
279.500000	0.001984  
280.000000	0.003022  
280.500000	0.003386  
281.000000	0.003749  
281.500000	0.005030  
282.000000	0.005924  
282.500000	0.005954  
283.000000	0.005621  
283.500000	0.005674  
284.000000	0.005878  
284.500000	0.005378  
285.000000	0.004053  
285.500000	0.002310  
286.000000	0.001674  
286.500000	0.002674  
287.000000	0.004628  
287.500000	0.004962  
288.000000	0.004393  
288.500000	0.003469  
289.000000	0.002954  
289.500000	0.002113  
290.000000	0.000969  
290.500000	-0.000151 
291.000000	0.000295  
291.500000	0.001257  
292.000000	0.001590  
292.500000	0.000886  
293.000000	0.000143  
293.500000	-0.000242 
294.000000	-0.000113 
294.500000	0.000477  
295.000000	0.001257  
295.500000	0.001590  
296.000000	0.000886  
296.500000	0.000083  
297.000000	-0.000295 
297.500000	0.000295  
298.000000	0.001280  
298.500000	0.002431  
299.000000	0.003106  
299.500000	0.003174  
300.000000	0.002469  
300.500000	0.001666  
301.000000	0.002515  
301.500000	0.005560  
302.000000	0.008575  
302.500000	0.010181  
303.000000	0.011098  
303.500000	0.013272  
304.000000	0.016348  
304.500000	0.020992  
305.000000	0.025916  
305.500000	0.028371  
306.000000	0.027143  
306.500000	0.024969  
307.000000	0.025174  
307.500000	0.026469  
308.000000	0.028068  
308.500000	0.029840  
309.000000	0.032840  
309.500000	0.033871  
310.000000	0.032325  
310.500000	0.029424  
311.000000	0.028333  
311.500000	0.029325  
312.000000	0.029946  
312.500000	0.027848  
313.000000	0.024083  
313.500000	0.021848  
314.000000	0.022446  
314.500000	0.023962  
315.000000	0.023348  
315.500000	0.020166  
316.000000	0.015825  
316.500000	0.013803  
317.000000	0.014606  
317.500000	0.017553  
318.000000	0.019280  
318.500000	0.018909  
319.000000	0.015901  
319.500000	0.012181  
320.000000	0.009500  
320.500000	0.009166  
321.000000	0.010143  
321.500000	0.010409  
322.000000	0.010143  
322.500000	0.010234  
323.000000	0.011333  
323.500000	0.012022  
324.000000	0.012545  
324.500000	0.011727  
325.000000	0.010227  
325.500000	0.007939  
326.000000	0.007189  
326.500000	0.007037  
327.000000	0.007287  
327.500000	0.006378  
328.000000	0.006371  
328.500000	0.007219  
329.000000	0.008606  
329.500000	0.008742  
330.000000	0.007136  
330.500000	0.006083  
331.000000	0.006901  
331.500000	0.009015  
332.000000	0.009727  
332.500000	0.009454  
333.000000	0.009280  
333.500000	0.009696  
334.000000	0.009272  
334.500000	0.007522  
335.000000	0.006568  
335.500000	0.006931  
336.000000	0.009128  
336.500000	0.010727  
337.000000	0.011401  
337.500000	0.010878  
338.000000	0.010916  
338.500000	0.011734  
339.000000	0.012734  
339.500000	0.013575  
340.000000	0.014477  
340.500000	0.014946  
341.000000	0.014484  
341.500000	0.013712  
342.000000	0.014439  
342.500000	0.015356  
343.000000	0.015113  
343.500000	0.013242  
344.000000	0.012022  
344.500000	0.011295  
345.000000	0.011303  
345.500000	0.011545  
346.000000	0.013257  
346.500000	0.015606  
347.000000	0.017068  
347.500000	0.016477  
348.000000	0.015113  
348.500000	0.014053  
349.000000	0.013340  
349.500000	0.012280  
350.000000	0.012689  
350.500000	0.015325  
351.000000	0.018515  
351.500000	0.019219  
352.000000	0.018454  
352.500000	0.017787  
353.000000	0.018500  
353.500000	0.018446  
354.000000	0.017378  
354.500000	0.017833  
355.000000	0.020431  
355.500000	0.022856  
356.000000	0.022007  
356.500000	0.020219  
357.000000	0.020939  
357.500000	0.023295  
358.000000	0.024015  
358.500000	0.023333  
359.000000	0.024174  
359.500000	0.027037  
360.000000	0.028113  
360.500000	0.025227  
361.000000	0.023863  
361.500000	0.027272  
362.000000	0.032333  
362.500000	0.033265  
363.000000	0.030704  
363.500000	0.027530  
364.000000	0.027106  
364.500000	0.026871  
365.000000	0.028780  
365.500000	0.029946  
366.000000	0.031007  
366.500000	0.031204  
367.000000	0.032636  
367.500000	0.034015  
368.000000	0.036386  
368.500000	0.038416  
369.000000	0.040303  
369.500000	0.042250  
370.000000	0.042681  
370.500000	0.041962  
371.000000	0.041901  
371.500000	0.044681  
372.000000	0.050068  
372.500000	0.053113  
373.000000	0.055136  
373.500000	0.057007  
374.000000	0.061545  
374.500000	0.062871  
375.000000	0.061484  
375.500000	0.057840  
376.000000	0.055765  
376.500000	0.055151  
377.000000	0.055757  
377.500000	0.057265  
378.000000	0.057325  
378.500000	0.055151  
379.000000	0.049462  
379.500000	0.044681  
380.000000	0.040393  
380.500000	0.038560  
381.000000	0.037977  
381.500000	0.038083  
382.000000	0.037742  
382.500000	0.040280  
383.000000	0.044053  
383.500000	0.045787  
384.000000	0.042409  
384.500000	0.037962  
385.000000	0.036409  
385.500000	0.037780  
386.000000	0.038871  
386.500000	0.039212  
387.000000	0.038537  
387.500000	0.038507  
388.000000	0.038863  
388.500000	0.039068  
389.000000	0.038583  
389.500000	0.038727  
390.000000	0.038446  
390.500000	0.038098  
391.000000	0.037477  
391.500000	0.038393  
392.000000	0.039090  
392.500000	0.039734  
393.000000	0.040280  
393.500000	0.041719  
394.000000	0.041143  
394.500000	0.039257  
395.000000	0.038128  
395.500000	0.038151  
396.000000	0.039295  
396.500000	0.040469  
397.000000	0.041992  
397.500000	0.042462  
398.000000	0.044000  
398.500000	0.045318  
399.000000	0.046507  
399.500000	0.044325  
400.000000	0.040833  
400.500000	0.036810  
401.000000	0.035219  
401.500000	0.035348  
402.000000	0.036204  
402.500000	0.033787  
403.000000	0.030416  
403.500000	0.029090  
404.000000	0.030727  
404.500000	0.030969  
405.000000	0.030431  
405.500000	0.030280  
406.000000	0.031643  
406.500000	0.032075  
407.000000	0.031886  
407.500000	0.030772  
408.000000	0.030242  
408.500000	0.030818  
409.000000	0.033909  
409.500000	0.037712  
410.000000	0.041000  

