PE FL                   SPECTRUM    ASCII       PEDS        1.60        
  -1
01#196.SP
02/03/17
06:11:04.00
02/03/17
06:13:02.00


519.500000
1









LS55
310.00
5.00
5.00
SCAN
1
20
100
100
0
100
0
1
0
1
7
ON
530 280 
1 0 0
#HDR
-1
-1
#GR
NM

0.00002384185791015625
0.0
340.000000
0.500000
360
8
0.003333
-0.000181
#DATA
340.000000	0.000000  
340.500000	0.000000  
341.000000	0.000000  
341.500000	0.000000  
342.000000	0.000000  
342.500000	0.000000  
343.000000	0.000000  
343.500000	-0.000060 
344.000000	-0.000053 
344.500000	0.000409  
345.000000	0.000984  
345.500000	0.001151  
346.000000	0.000613  
346.500000	0.000075  
347.000000	-0.000121 
347.500000	0.000000  
348.000000	0.000000  
348.500000	0.000000  
349.000000	0.000000  
349.500000	0.000000  
350.000000	0.000000  
350.500000	0.000000  
351.000000	0.000000  
351.500000	0.000000  
352.000000	0.000000  
352.500000	0.000000  
353.000000	0.000000  
353.500000	0.000000  
354.000000	0.000000  
354.500000	0.000000  
355.000000	0.000000  
355.500000	0.000000  
356.000000	0.000000  
356.500000	0.000000  
357.000000	0.000000  
357.500000	0.000000  
358.000000	0.000000  
358.500000	0.000000  
359.000000	0.000000  
359.500000	0.000000  
360.000000	0.000000  
360.500000	0.000000  
361.000000	-0.000060 
361.500000	-0.000053 
362.000000	0.000409  
362.500000	0.000984  
363.000000	0.001151  
363.500000	0.000613  
364.000000	0.000015  
364.500000	-0.000174 
365.000000	0.000348  
365.500000	0.000931  
366.000000	0.001560  
366.500000	0.001598  
367.000000	0.001227  
367.500000	0.000431  
368.000000	0.000022  
368.500000	0.000287  
369.000000	0.000984  
369.500000	0.001151  
370.000000	0.000613  
370.500000	0.000075  
371.000000	-0.000121 
371.500000	0.000000  
372.000000	0.000000  
372.500000	0.000000  
373.000000	0.000000  
373.500000	0.000000  
374.000000	0.000000  
374.500000	0.000000  
375.000000	0.000000  
375.500000	0.000000  
376.000000	0.000000  
376.500000	0.000000  
377.000000	0.000000  
377.500000	0.000000  
378.000000	0.000000  
378.500000	0.000000  
379.000000	0.000000  
379.500000	0.000000  
380.000000	0.000000  
380.500000	0.000000  
381.000000	0.000000  
381.500000	0.000000  
382.000000	0.000000  
382.500000	0.000000  
383.000000	0.000000  
383.500000	0.000000  
384.000000	0.000000  
384.500000	0.000000  
385.000000	0.000000  
385.500000	0.000000  
386.000000	0.000000  
386.500000	0.000000  
387.000000	0.000000  
387.500000	0.000000  
388.000000	0.000000  
388.500000	0.000000  
389.000000	0.000000  
389.500000	0.000000  
390.000000	0.000000  
390.500000	0.000000  
391.000000	0.000000  
391.500000	0.000000  
392.000000	0.000000  
392.500000	0.000000  
393.000000	0.000000  
393.500000	0.000000  
394.000000	0.000000  
394.500000	0.000000  
395.000000	0.000000  
395.500000	0.000000  
396.000000	0.000000  
396.500000	0.000000  
397.000000	0.000000  
397.500000	0.000000  
398.000000	0.000000  
398.500000	0.000000  
399.000000	0.000000  
399.500000	0.000000  
400.000000	0.000000  
400.500000	0.000000  
401.000000	0.000000  
401.500000	0.000000  
402.000000	0.000000  
402.500000	0.000000  
403.000000	0.000000  
403.500000	0.000000  
404.000000	-0.000060 
404.500000	-0.000053 
405.000000	0.000409  
405.500000	0.000984  
406.000000	0.001151  
406.500000	0.000613  
407.000000	0.000075  
407.500000	-0.000121 
408.000000	0.000000  
408.500000	0.000000  
409.000000	0.000000  
409.500000	0.000000  
410.000000	0.000000  
410.500000	0.000000  
411.000000	0.000000  
411.500000	-0.000060 
412.000000	-0.000053 
412.500000	0.000409  
413.000000	0.000984  
413.500000	0.001151  
414.000000	0.000553  
414.500000	0.000022  
415.000000	0.000287  
415.500000	0.000984  
416.000000	0.001151  
416.500000	0.000613  
417.000000	0.000075  
417.500000	-0.000121 
418.000000	0.000000  
418.500000	0.000000  
419.000000	0.000000  
419.500000	0.000000  
420.000000	0.000000  
420.500000	0.000000  
421.000000	0.000000  
421.500000	0.000000  
422.000000	0.000000  
422.500000	0.000000  
423.000000	0.000000  
423.500000	0.000000  
424.000000	0.000000  
424.500000	0.000000  
425.000000	0.000000  
425.500000	0.000000  
426.000000	0.000000  
426.500000	0.000000  
427.000000	0.000000  
427.500000	0.000000  
428.000000	0.000000  
428.500000	0.000000  
429.000000	0.000000  
429.500000	0.000000  
430.000000	0.000000  
430.500000	0.000000  
431.000000	0.000000  
431.500000	0.000000  
432.000000	0.000000  
432.500000	0.000000  
433.000000	0.000000  
433.500000	0.000000  
434.000000	0.000000  
434.500000	0.000000  
435.000000	0.000000  
435.500000	0.000000  
436.000000	0.000000  
436.500000	0.000000  
437.000000	0.000000  
437.500000	0.000000  
438.000000	0.000000  
438.500000	0.000000  
439.000000	0.000000  
439.500000	-0.000060 
440.000000	-0.000053 
440.500000	0.000409  
441.000000	0.000984  
441.500000	0.001090  
442.000000	0.000560  
442.500000	0.000484  
443.000000	0.000863  
443.500000	0.001151  
444.000000	0.000613  
444.500000	0.000075  
445.000000	-0.000121 
445.500000	0.000000  
446.000000	0.000000  
446.500000	0.000000  
447.000000	0.000000  
447.500000	0.000000  
448.000000	0.000000  
448.500000	0.000000  
449.000000	0.000000  
449.500000	0.000000  
450.000000	0.000000  
450.500000	0.000000  
451.000000	0.000000  
451.500000	0.000000  
452.000000	0.000000  
452.500000	0.000000  
453.000000	0.000000  
453.500000	0.000000  
454.000000	0.000000  
454.500000	0.000000  
455.000000	0.000000  
455.500000	0.000000  
456.000000	0.000000  
456.500000	0.000000  
457.000000	0.000000  
457.500000	0.000000  
458.000000	0.000000  
458.500000	0.000000  
459.000000	0.000000  
459.500000	0.000000  
460.000000	0.000000  
460.500000	0.000000  
461.000000	0.000000  
461.500000	0.000000  
462.000000	0.000000  
462.500000	0.000000  
463.000000	0.000000  
463.500000	0.000000  
464.000000	0.000000  
464.500000	0.000000  
465.000000	0.000000  
465.500000	0.000000  
466.000000	0.000000  
466.500000	0.000000  
467.000000	0.000000  
467.500000	0.000000  
468.000000	0.000000  
468.500000	0.000000  
469.000000	0.000000  
469.500000	0.000000  
470.000000	0.000000  
470.500000	0.000000  
471.000000	0.000000  
471.500000	0.000000  
472.000000	0.000000  
472.500000	0.000000  
473.000000	0.000000  
473.500000	0.000000  
474.000000	0.000000  
474.500000	0.000000  
475.000000	0.000000  
475.500000	0.000000  
476.000000	0.000000  
476.500000	0.000000  
477.000000	0.000000  
477.500000	0.000000  
478.000000	-0.000060 
478.500000	-0.000053 
479.000000	0.000409  
479.500000	0.000984  
480.000000	0.001151  
480.500000	0.000553  
481.000000	0.000022  
481.500000	0.000287  
482.000000	0.000984  
482.500000	0.001151  
483.000000	0.000613  
483.500000	0.000075  
484.000000	-0.000181 
484.500000	-0.000174 
485.000000	0.000242  
485.500000	0.001871  
486.000000	0.003333  
486.500000	0.003303  
487.000000	0.001984  
487.500000	0.001083  
488.000000	0.000848  
488.500000	0.000613  
489.000000	0.000075  
489.500000	-0.000121 
490.000000	0.000000  
490.500000	0.000000  
491.000000	0.000000  
491.500000	0.000000  
492.000000	-0.000060 
492.500000	-0.000053 
493.000000	0.000409  
493.500000	0.000984  
494.000000	0.001151  
494.500000	0.000613  
495.000000	0.000015  
495.500000	-0.000174 
496.000000	0.000409  
496.500000	0.000984  
497.000000	0.001151  
497.500000	0.000613  
498.000000	0.000075  
498.500000	-0.000121 
499.000000	0.000000  
499.500000	0.000000  
500.000000	0.000000  
500.500000	-0.000060 
501.000000	-0.000053 
501.500000	0.000409  
502.000000	0.000984  
502.500000	0.001151  
503.000000	0.000613  
503.500000	0.000075  
504.000000	-0.000121 
504.500000	0.000000  
505.000000	0.000000  
505.500000	0.000000  
506.000000	0.000000  
506.500000	0.000000  
507.000000	0.000000  
507.500000	0.000000  
508.000000	0.000000  
508.500000	0.000000  
509.000000	0.000000  
509.500000	0.000000  
510.000000	0.000000  
510.500000	0.000000  
511.000000	0.000000  
511.500000	0.000000  
512.000000	0.000000  
512.500000	0.000000  
513.000000	0.000000  
513.500000	0.000000  
514.000000	0.000000  
514.500000	-0.000060 
515.000000	-0.000053 
515.500000	0.000409  
516.000000	0.000984  
516.500000	0.001151  
517.000000	0.000613  
517.500000	0.000075  
518.000000	-0.000121 
518.500000	0.000000  
519.000000	0.000000  
519.500000	0.000000  

