PE FL                   SPECTRUM    ASCII       PEDS        1.60        
  -1
01#136.SP
02/03/17
02:05:45.00
02/03/17
02:08:07.00


550.000000
1









LS55
310.00
5.00
5.00
SCAN
1
20
100
100
0
100
0
1
0
1
7
ON
550 310 
1 0 0
#HDR
-1
-1
#GR
NM

0.00002384185791015625
0.0
330.000000
0.500000
441
8
8.917446
0.545719
#DATA
330.000000	0.562999 
330.500000	0.577643 
331.000000	0.573303 
331.500000	0.555833 
332.000000	0.545719 
332.500000	0.554962 
333.000000	0.576643 
333.500000	0.608939 
334.000000	0.635545 
334.500000	0.640560 
335.000000	0.640015 
335.500000	0.647560 
336.000000	0.666954 
336.500000	0.677075 
337.000000	0.679007 
337.500000	0.688045 
338.000000	0.716439 
338.500000	0.745522 
339.000000	0.758537 
339.500000	0.762075 
340.000000	0.767280 
340.500000	0.798356 
341.000000	0.838075 
341.500000	0.862878 
342.000000	0.855106 
342.500000	0.842780 
343.000000	0.844090 
343.500000	0.860621 
344.000000	0.877265 
344.500000	0.892446 
345.000000	0.912772 
345.500000	0.929780 
346.000000	0.945893 
346.500000	0.953340 
347.000000	0.952234 
347.500000	0.954204 
348.000000	0.963128 
348.500000	0.978818 
349.000000	0.983871 
349.500000	1.001916 
350.000000	1.021613 
350.500000	1.052287 
351.000000	1.063446 
351.500000	1.084189 
352.000000	1.111363 
352.500000	1.143765 
353.000000	1.168174 
353.500000	1.181606 
354.000000	1.187128 
354.500000	1.173189 
355.000000	1.175257 
355.500000	1.204083 
356.000000	1.255848 
356.500000	1.289030 
357.000000	1.294128 
357.500000	1.292189 
358.000000	1.302212 
358.500000	1.338719 
359.000000	1.381363 
359.500000	1.428787 
360.000000	1.461022 
360.500000	1.479416 
361.000000	1.481931 
361.500000	1.480333 
362.000000	1.489719 
362.500000	1.525757 
363.000000	1.566530 
363.500000	1.609810 
364.000000	1.643628 
364.500000	1.677393 
365.000000	1.693159 
365.500000	1.715575 
366.000000	1.736333 
366.500000	1.757098 
367.000000	1.756818 
367.500000	1.763257 
368.000000	1.799386 
368.500000	1.850553 
369.000000	1.882515 
369.500000	1.896590 
370.000000	1.919568 
370.500000	1.968151 
371.000000	2.023712 
371.500000	2.074303 
372.000000	2.117712 
372.500000	2.171212 
373.000000	2.231310 
373.500000	2.286909 
374.000000	2.333363 
374.500000	2.374818 
375.000000	2.425386 
375.500000	2.479250 
376.000000	2.543204 
376.500000	2.616007 
377.000000	2.716507 
377.500000	2.807500 
378.000000	2.856893 
378.500000	2.877053 
379.000000	2.909659 
379.500000	2.965719 
380.000000	3.022969 
380.500000	3.088674 
381.000000	3.180401 
381.500000	3.283325 
382.000000	3.391280 
382.500000	3.475045 
383.000000	3.535621 
383.500000	3.579515 
384.000000	3.662181 
384.500000	3.782522 
385.000000	3.892249 
385.500000	3.942750 
386.000000	3.974810 
386.500000	4.035553 
387.000000	4.121803 
387.500000	4.208712 
388.000000	4.301590 
388.500000	4.400500 
389.000000	4.494909 
389.500000	4.545954 
390.000000	4.592916 
390.500000	4.649598 
391.000000	4.737166 
391.500000	4.830893 
392.000000	4.963287 
392.500000	5.071787 
393.000000	5.165106 
393.500000	5.235712 
394.000000	5.356946 
394.500000	5.486128 
395.000000	5.585560 
395.500000	5.611174 
396.000000	5.623295 
396.500000	5.675219 
397.000000	5.796219 
397.500000	5.924409 
398.000000	6.009484 
398.500000	6.045310 
399.000000	6.101083 
399.500000	6.178787 
400.000000	6.288416 
400.500000	6.378780 
401.000000	6.468780 
401.500000	6.532181 
402.000000	6.586386 
402.500000	6.599659 
403.000000	6.638704 
403.500000	6.692106 
404.000000	6.797931 
404.500000	6.888848 
405.000000	6.978522 
405.500000	7.046871 
406.000000	7.130431 
406.500000	7.192295 
407.000000	7.264189 
407.500000	7.341121 
408.000000	7.434242 
408.500000	7.472583 
409.000000	7.480681 
409.500000	7.496848 
410.000000	7.577037 
410.500000	7.656916 
411.000000	7.731045 
411.500000	7.775590 
412.000000	7.815356 
412.500000	7.839393 
413.000000	7.872219 
413.500000	7.943931 
414.000000	7.991969 
414.500000	8.022401 
415.000000	8.064863 
415.500000	8.153265 
416.000000	8.232181 
416.500000	8.299901 
417.000000	8.323257 
417.500000	8.338492 
418.000000	8.360795 
418.500000	8.412749 
419.000000	8.473492 
419.500000	8.499613 
420.000000	8.524325 
420.500000	8.582378 
421.000000	8.705939 
421.500000	8.802780 
422.000000	8.876659 
422.500000	8.865022 
423.000000	8.850303 
423.500000	8.855946 
424.000000	8.902992 
424.500000	8.917446 
425.000000	8.856606 
425.500000	8.780159 
426.000000	8.736749 
426.500000	8.768742 
427.000000	8.781696 
427.500000	8.800356 
428.000000	8.797901 
428.500000	8.806984 
429.000000	8.797772 
429.500000	8.800037 
430.000000	8.803128 
430.500000	8.814022 
431.000000	8.805196 
431.500000	8.774416 
432.000000	8.733356 
432.500000	8.725303 
433.000000	8.754507 
433.500000	8.768916 
434.000000	8.722446 
434.500000	8.621030 
435.000000	8.549060 
435.500000	8.538893 
436.000000	8.549068 
436.500000	8.526098 
437.000000	8.457424 
437.500000	8.353446 
438.000000	8.256393 
438.500000	8.190083 
439.000000	8.162659 
439.500000	8.151151 
440.000000	8.129287 
440.500000	8.090560 
441.000000	8.054719 
441.500000	7.991628 
442.000000	7.944348 
442.500000	7.901871 
443.000000	7.855962 
443.500000	7.789257 
444.000000	7.758227 
444.500000	7.757340 
445.000000	7.740848 
445.500000	7.676340 
446.000000	7.565439 
446.500000	7.435151 
447.000000	7.343484 
447.500000	7.332651 
448.000000	7.351287 
448.500000	7.303659 
449.000000	7.202598 
449.500000	7.123083 
450.000000	7.091848 
450.500000	7.039871 
451.000000	6.939780 
451.500000	6.826583 
452.000000	6.731977 
452.500000	6.670037 
453.000000	6.649992 
453.500000	6.629356 
454.000000	6.595848 
454.500000	6.513583 
455.000000	6.432727 
455.500000	6.354628 
456.000000	6.316621 
456.500000	6.284598 
457.000000	6.243431 
457.500000	6.177037 
458.000000	6.086446 
458.500000	5.993340 
459.000000	5.939628 
459.500000	5.926628 
460.000000	5.895378 
460.500000	5.804696 
461.000000	5.710106 
461.500000	5.668280 
462.000000	5.659704 
462.500000	5.609613 
463.000000	5.528825 
463.500000	5.459037 
464.000000	5.402507 
464.500000	5.361787 
465.000000	5.307742 
465.500000	5.241295 
466.000000	5.175992 
466.500000	5.129060 
467.000000	5.091249 
467.500000	5.055371 
468.000000	5.022590 
468.500000	4.994424 
469.000000	4.980159 
469.500000	4.940310 
470.000000	4.880651 
470.500000	4.829696 
471.000000	4.803636 
471.500000	4.797515 
472.000000	4.780015 
472.500000	4.758969 
473.000000	4.734075 
473.500000	4.686371 
474.000000	4.602886 
474.500000	4.516060 
475.000000	4.494219 
475.500000	4.505734 
476.000000	4.510515 
476.500000	4.460477 
477.000000	4.399568 
477.500000	4.330757 
478.000000	4.280530 
478.500000	4.253378 
479.000000	4.257159 
479.500000	4.269166 
480.000000	4.278113 
480.500000	4.271765 
481.000000	4.250590 
481.500000	4.209143 
482.000000	4.182810 
482.500000	4.154946 
483.000000	4.111378 
483.500000	4.063113 
484.000000	4.047916 
484.500000	4.038598 
485.000000	4.008136 
485.500000	3.971121 
486.000000	3.970424 
486.500000	3.982772 
487.000000	3.967825 
487.500000	3.902590 
488.000000	3.800522 
488.500000	3.731446 
489.000000	3.721757 
489.500000	3.761780 
490.000000	3.765992 
490.500000	3.726083 
491.000000	3.660560 
491.500000	3.648181 
492.000000	3.642143 
492.500000	3.641878 
493.000000	3.619310 
493.500000	3.595871 
494.000000	3.563765 
494.500000	3.542507 
495.000000	3.509886 
495.500000	3.465674 
496.000000	3.413916 
496.500000	3.376780 
497.000000	3.367234 
497.500000	3.345848 
498.000000	3.327075 
498.500000	3.319636 
499.000000	3.308568 
499.500000	3.272803 
500.000000	3.241515 
500.500000	3.230053 
501.000000	3.230969 
501.500000	3.216825 
502.000000	3.165818 
502.500000	3.117000 
503.000000	3.070219 
503.500000	3.051446 
504.000000	3.030303 
504.500000	3.020696 
505.000000	3.008909 
505.500000	3.014083 
506.000000	3.002287 
506.500000	3.005030 
507.000000	3.002113 
507.500000	2.980333 
508.000000	2.919696 
508.500000	2.894272 
509.000000	2.920946 
509.500000	2.954583 
510.000000	2.917992 
510.500000	2.866840 
511.000000	2.842636 
511.500000	2.842507 
512.000000	2.817787 
512.500000	2.796106 
513.000000	2.787250 
513.500000	2.785446 
514.000000	2.756250 
514.500000	2.739924 
515.000000	2.741795 
515.500000	2.760606 
516.000000	2.742401 
516.500000	2.713242 
517.000000	2.691787 
517.500000	2.696090 
518.000000	2.675507 
518.500000	2.629795 
519.000000	2.583219 
519.500000	2.561969 
520.000000	2.557992 
520.500000	2.558803 
521.000000	2.560083 
521.500000	2.550045 
522.000000	2.533318 
522.500000	2.512303 
523.000000	2.510484 
523.500000	2.510265 
524.000000	2.508780 
524.500000	2.493272 
525.000000	2.481303 
525.500000	2.461522 
526.000000	2.449560 
526.500000	2.441287 
527.000000	2.453727 
527.500000	2.459204 
528.000000	2.452219 
528.500000	2.437795 
529.000000	2.436257 
529.500000	2.433295 
530.000000	2.420507 
530.500000	2.386651 
531.000000	2.354810 
531.500000	2.335333 
532.000000	2.337242 
532.500000	2.317143 
533.000000	2.291204 
533.500000	2.272954 
534.000000	2.273219 
534.500000	2.252522 
535.000000	2.217477 
535.500000	2.205606 
536.000000	2.214136 
536.500000	2.224598 
537.000000	2.213825 
537.500000	2.212810 
538.000000	2.215045 
538.500000	2.217340 
539.000000	2.207212 
539.500000	2.186931 
540.000000	2.162356 
540.500000	2.161113 
541.000000	2.184431 
541.500000	2.199242 
542.000000	2.176424 
542.500000	2.130704 
543.000000	2.105106 
543.500000	2.109515 
544.000000	2.098143 
544.500000	2.068196 
545.000000	2.036068 
545.500000	2.040469 
546.000000	2.053878 
546.500000	2.073128 
547.000000	2.070159 
547.500000	2.081924 
548.000000	2.070348 
548.500000	2.049946 
549.000000	2.019136 
549.500000	2.028719 
550.000000	2.079000 

