PE FL                   SPECTRUM    ASCII       PEDS        1.60        
  -1
01#147.SP
02/03/17
03:12:37.00
02/03/17
03:15:10.00


580.000000
1









LS55
310.00
5.00
5.00
SCAN
1
20
100
100
0
100
0
1
0
1
7
ON
534 310 
1 0 0
#HDR
-1
-1
#GR
NM

0.00002384185791015625
0.0
340.000000
0.500000
481
8
0.084878
-0.000666
#DATA
340.000000	0.043999  
340.500000	0.061560  
341.000000	0.076280  
341.500000	0.084878  
342.000000	0.079886  
342.500000	0.071106  
343.000000	0.061696  
343.500000	0.057401  
344.000000	0.054590  
344.500000	0.054469  
345.000000	0.046825  
345.500000	0.038863  
346.000000	0.038037  
346.500000	0.044416  
347.000000	0.052757  
347.500000	0.053969  
348.000000	0.055606  
348.500000	0.054606  
349.000000	0.053295  
349.500000	0.047856  
350.000000	0.043015  
350.500000	0.035136  
351.000000	0.033204  
351.500000	0.037492  
352.000000	0.050621  
352.500000	0.058560  
353.000000	0.058287  
353.500000	0.052401  
354.000000	0.050136  
354.500000	0.047492  
355.000000	0.049242  
355.500000	0.051401  
356.000000	0.052090  
356.500000	0.046310  
357.000000	0.039545  
357.500000	0.041848  
358.000000	0.048272  
358.500000	0.048530  
359.000000	0.041484  
359.500000	0.036977  
360.000000	0.035469  
360.500000	0.035651  
361.000000	0.032507  
361.500000	0.032000  
362.000000	0.033515  
362.500000	0.038015  
363.000000	0.040151  
363.500000	0.037424  
364.000000	0.034954  
364.500000	0.038515  
365.000000	0.043416  
365.500000	0.041939  
366.000000	0.036075  
366.500000	0.032893  
367.000000	0.031848  
367.500000	0.027401  
368.000000	0.022348  
368.500000	0.025212  
369.000000	0.032984  
369.500000	0.038378  
370.000000	0.035909  
370.500000	0.032750  
371.000000	0.037689  
371.500000	0.043015  
372.000000	0.039348  
372.500000	0.029106  
373.000000	0.025598  
373.500000	0.028522  
374.000000	0.035530  
374.500000	0.038007  
375.000000	0.039075  
375.500000	0.035515  
376.000000	0.033719  
376.500000	0.033015  
377.000000	0.037303  
377.500000	0.040174  
378.000000	0.043227  
378.500000	0.041939  
379.000000	0.038113  
379.500000	0.033280  
380.000000	0.032848  
380.500000	0.036689  
381.000000	0.043242  
381.500000	0.047030  
382.000000	0.045477  
382.500000	0.039598  
383.000000	0.034174  
383.500000	0.032553  
384.000000	0.035818  
384.500000	0.039446  
385.000000	0.040878  
385.500000	0.038833  
386.000000	0.036204  
386.500000	0.033371  
387.000000	0.034984  
387.500000	0.043704  
388.000000	0.049977  
388.500000	0.049606  
389.000000	0.047537  
389.500000	0.052522  
390.000000	0.055424  
390.500000	0.054166  
391.000000	0.050590  
391.500000	0.050371  
392.000000	0.047530  
392.500000	0.040924  
393.000000	0.036287  
393.500000	0.036234  
394.000000	0.038439  
394.500000	0.044886  
395.000000	0.052696  
395.500000	0.059212  
396.000000	0.059772  
396.500000	0.057477  
397.000000	0.051772  
397.500000	0.049242  
398.000000	0.051250  
398.500000	0.059863  
399.000000	0.064166  
399.500000	0.059984  
400.000000	0.049621  
400.500000	0.047583  
401.000000	0.052689  
401.500000	0.062454  
402.000000	0.065553  
402.500000	0.066621  
403.000000	0.067962  
403.500000	0.067204  
404.000000	0.061227  
404.500000	0.056106  
405.000000	0.059113  
405.500000	0.059825  
406.000000	0.052257  
406.500000	0.045636  
407.000000	0.052371  
407.500000	0.064924  
408.000000	0.069469  
408.500000	0.067689  
409.000000	0.061500  
409.500000	0.054833  
410.000000	0.047121  
410.500000	0.049803  
411.000000	0.056151  
411.500000	0.057954  
412.000000	0.055106  
412.500000	0.054530  
413.000000	0.058439  
413.500000	0.059840  
414.000000	0.056992  
414.500000	0.048204  
415.000000	0.044265  
415.500000	0.046477  
416.000000	0.057765  
416.500000	0.063257  
417.000000	0.061378  
417.500000	0.053712  
418.000000	0.052159  
418.500000	0.049666  
419.000000	0.052606  
419.500000	0.054712  
420.000000	0.065825  
420.500000	0.072272  
421.000000	0.076977  
421.500000	0.070628  
422.000000	0.070280  
422.500000	0.066492  
423.000000	0.065537  
423.500000	0.063795  
424.000000	0.073083  
424.500000	0.075924  
425.000000	0.067901  
425.500000	0.052848  
426.000000	0.050030  
426.500000	0.052901  
427.000000	0.054704  
427.500000	0.053401  
428.000000	0.051916  
428.500000	0.047734  
429.000000	0.041825  
429.500000	0.039787  
430.000000	0.039401  
430.500000	0.036901  
431.000000	0.038886  
431.500000	0.044787  
432.000000	0.051590  
432.500000	0.049606  
433.000000	0.049401  
433.500000	0.050431  
434.000000	0.052787  
434.500000	0.046583  
435.000000	0.040022  
435.500000	0.039340  
436.000000	0.044621  
436.500000	0.047090  
437.000000	0.044424  
437.500000	0.039674  
438.000000	0.035924  
438.500000	0.034196  
439.000000	0.033833  
439.500000	0.036939  
440.000000	0.039007  
440.500000	0.036901  
441.000000	0.034356  
441.500000	0.036568  
442.000000	0.038212  
442.500000	0.036946  
443.000000	0.033583  
443.500000	0.036098  
444.000000	0.038401  
444.500000	0.037909  
445.000000	0.030348  
445.500000	0.027143  
446.000000	0.025128  
446.500000	0.026386  
447.000000	0.022871  
447.500000	0.018727  
448.000000	0.016772  
448.500000	0.017424  
449.000000	0.018916  
449.500000	0.020090  
450.000000	0.026401  
450.500000	0.031553  
451.000000	0.033939  
451.500000	0.035962  
452.000000	0.034939  
452.500000	0.031318  
453.000000	0.026022  
453.500000	0.028553  
454.000000	0.030265  
454.500000	0.026734  
455.000000	0.015022  
455.500000	0.009598  
456.000000	0.009795  
456.500000	0.015303  
457.000000	0.021303  
457.500000	0.026083  
458.000000	0.024037  
458.500000	0.020053  
459.000000	0.015090  
459.500000	0.014378  
460.000000	0.015265  
460.500000	0.016015  
461.000000	0.011863  
461.500000	0.008265  
462.000000	0.006992  
462.500000	0.010378  
463.000000	0.012007  
463.500000	0.011212  
464.000000	0.008999  
464.500000	0.008598  
465.000000	0.008666  
465.500000	0.010530  
466.000000	0.011704  
466.500000	0.012348  
467.000000	0.010401  
467.500000	0.007984  
468.000000	0.005962  
468.500000	0.005409  
469.000000	0.003598  
469.500000	0.001371  
470.000000	0.002530  
470.500000	0.006636  
471.000000	0.010613  
471.500000	0.010931  
472.000000	0.009916  
472.500000	0.007916  
473.000000	0.005954  
473.500000	0.004106  
474.000000	0.004522  
474.500000	0.006196  
475.000000	0.006325  
475.500000	0.004575  
476.000000	0.002643  
476.500000	0.002939  
477.000000	0.003522  
477.500000	0.002909  
478.000000	0.002787  
478.500000	0.005030  
479.000000	0.007090  
479.500000	0.005560  
480.000000	0.002356  
480.500000	0.001007  
481.000000	0.001772  
481.500000	0.001590  
482.000000	0.000810  
482.500000	0.001598  
483.000000	0.004045  
483.500000	0.005833  
484.000000	0.005484  
484.500000	0.004507  
485.000000	0.004159  
485.500000	0.004356  
486.000000	0.004477  
486.500000	0.004045  
487.000000	0.002893  
487.500000	0.001583  
488.000000	0.002386  
488.500000	0.004295  
489.000000	0.005356  
489.500000	0.003325  
490.000000	0.000863  
490.500000	0.000757  
491.000000	0.004522  
491.500000	0.008340  
492.000000	0.008924  
492.500000	0.005431  
493.000000	0.001727  
493.500000	0.000492  
494.000000	0.000939  
494.500000	0.001030  
495.000000	0.000613  
495.500000	0.000075  
496.000000	-0.000181 
496.500000	-0.000174 
497.000000	0.000181  
497.500000	0.001818  
498.000000	0.003803  
498.500000	0.004280  
499.000000	0.002674  
499.500000	0.001121  
500.000000	0.000757  
500.500000	0.000969  
501.000000	0.000560  
501.500000	0.000484  
502.000000	0.000863  
502.500000	0.001090  
503.000000	0.000560  
503.500000	0.000484  
504.000000	0.000863  
504.500000	0.001151  
505.000000	0.000613  
505.500000	0.000075  
506.000000	-0.000181 
506.500000	-0.000053 
507.000000	0.000348  
507.500000	0.000931  
508.000000	0.001560  
508.500000	0.001598  
509.000000	0.001166  
509.500000	0.000439  
510.000000	0.000424  
510.500000	0.000810  
511.000000	0.001560  
511.500000	0.001598  
512.000000	0.001227  
512.500000	0.000492  
513.000000	0.000075  
513.500000	-0.000121 
514.000000	0.000000  
514.500000	0.000000  
515.000000	0.000000  
515.500000	0.000000  
516.000000	0.000000  
516.500000	-0.000060 
517.000000	-0.000053 
517.500000	0.000409  
518.000000	0.000984  
518.500000	0.001090  
519.000000	0.000499  
519.500000	0.000431  
520.000000	0.001272  
520.500000	0.002136  
521.000000	0.001704  
521.500000	0.000636  
522.000000	0.000363  
522.500000	0.000863  
523.000000	0.001151  
523.500000	0.000613  
524.000000	0.000075  
524.500000	-0.000121 
525.000000	0.000000  
525.500000	-0.000060 
526.000000	-0.000053 
526.500000	0.000409  
527.000000	0.000863  
527.500000	0.000924  
528.000000	0.001446  
528.500000	0.002727  
529.000000	0.003606  
529.500000	0.002651  
530.000000	0.000833  
530.500000	-0.000287 
531.000000	-0.000295 
531.500000	0.000242  
532.000000	0.001871  
532.500000	0.003393  
533.000000	0.003295  
533.500000	0.001522  
534.000000	0.000507  
534.500000	0.000621  
535.000000	0.001098  
535.500000	0.000901  
536.000000	0.000893  
536.500000	0.001916  
537.000000	0.002856  
537.500000	0.002818  
538.000000	0.001196  
538.500000	-0.000242 
539.000000	0.001265  
539.500000	0.004318  
540.000000	0.005651  
540.500000	0.003204  
541.000000	0.000568  
541.500000	-0.000666 
542.000000	0.000000  
542.500000	0.000000  
543.000000	0.000000  
543.500000	-0.000060 
544.000000	-0.000053 
544.500000	0.000409  
545.000000	0.000924  
545.500000	0.001098  
546.000000	0.001022  
546.500000	0.001060  
547.000000	0.001030  
547.500000	0.000613  
548.000000	0.000075  
548.500000	-0.000121 
549.000000	0.000000  
549.500000	0.000000  
550.000000	0.000000  
550.500000	0.000000  
551.000000	0.000000  
551.500000	0.000000  
552.000000	-0.000060 
552.500000	-0.000053 
553.000000	0.000287  
553.500000	0.000696  
554.000000	0.001810  
554.500000	0.003689  
555.000000	0.005348  
555.500000	0.004878  
556.000000	0.003704  
556.500000	0.003060  
557.000000	0.003333  
557.500000	0.003416  
558.000000	0.002954  
558.500000	0.002348  
559.000000	0.002143  
559.500000	0.002113  
560.000000	0.003530  
560.500000	0.004560  
561.000000	0.004219  
561.500000	0.001962  
562.000000	0.000772  
562.500000	0.000386  
563.000000	0.001386  
563.500000	0.001780  
564.000000	0.003045  
564.500000	0.004174  
565.000000	0.004250  
565.500000	0.003371  
566.000000	0.002787  
566.500000	0.003401  
567.000000	0.003621  
567.500000	0.002962  
568.000000	0.001136  
568.500000	0.000166  
569.000000	0.000106  
569.500000	0.000863  
570.000000	0.000924  
570.500000	0.001446  
571.000000	0.002727  
571.500000	0.003545  
572.000000	0.002537  
572.500000	0.001189  
573.000000	0.001166  
573.500000	0.001954  
574.000000	0.001651  
574.500000	0.000984  
575.000000	0.001234  
575.500000	0.002128  
576.000000	0.002704  
576.500000	0.004371  
577.000000	0.006977  
577.500000	0.008530  
578.000000	0.006863  
578.500000	0.004727  
579.000000	0.004098  
579.500000	0.004265  
580.000000	0.003000  

