PE FL                   SPECTRUM    ASCII       PEDS        1.60        
  -1
01#223.SP
02/03/21
05:58:27.00
02/03/21
06:02:57.00


550.000000
1









LS55
310.00
5.00
5.00
SCAN
1
20
100
100
0
50
0
1
0
1
7
ON
420 400 
1 0 0
#HDR
-1
-1
#GR
NM

0.00002384185791015625
0.0
330.000000
0.500000
441
8
66.705962
6.290000
#DATA
330.000000	57.742999 
330.500000	58.346030 
331.000000	58.761446 
331.500000	59.025515 
332.000000	59.324795 
332.500000	59.687272 
333.000000	60.026053 
333.500000	60.291825 
334.000000	60.582545 
334.500000	60.910280 
335.000000	61.288946 
335.500000	61.601045 
336.000000	61.863765 
336.500000	62.099772 
337.000000	62.393106 
337.500000	62.705113 
338.000000	62.955848 
338.500000	63.110393 
339.000000	63.238499 
339.500000	63.402545 
340.000000	63.616106 
340.500000	63.794878 
341.000000	63.869303 
341.500000	63.836318 
342.000000	63.903363 
342.500000	64.093015 
343.000000	64.275469 
343.500000	64.242931 
344.000000	64.139772 
344.500000	64.055515 
345.000000	64.019363 
345.500000	63.995128 
346.000000	64.066310 
346.500000	64.228750 
347.000000	64.349825 
347.500000	64.364454 
348.000000	64.344590 
348.500000	64.410212 
349.000000	64.544492 
349.500000	64.650969 
350.000000	64.673590 
350.500000	64.648575 
351.000000	64.637825 
351.500000	64.664333 
352.000000	64.787878 
352.500000	64.958249 
353.000000	65.016734 
353.500000	64.936106 
354.000000	64.802242 
354.500000	64.815272 
355.000000	64.915606 
355.500000	64.995545 
356.000000	64.947530 
356.500000	64.838136 
357.000000	64.683477 
357.500000	64.555401 
358.000000	64.397250 
358.500000	64.233416 
359.000000	64.020477 
359.500000	63.803750 
360.000000	63.576393 
360.500000	63.400712 
361.000000	63.202946 
361.500000	62.976477 
362.000000	62.755810 
362.500000	62.576000 
363.000000	62.429272 
363.500000	62.295946 
364.000000	62.187954 
364.500000	62.076712 
365.000000	61.982568 
365.500000	61.861303 
366.000000	61.726454 
366.500000	61.531340 
367.000000	61.425174 
367.500000	61.437530 
368.000000	61.520401 
368.500000	61.460409 
369.000000	61.341007 
369.500000	61.265893 
370.000000	61.298886 
370.500000	61.323113 
371.000000	61.281969 
371.500000	61.218060 
372.000000	61.193840 
372.500000	61.189113 
373.000000	61.212689 
373.500000	61.278113 
374.000000	61.367477 
374.500000	61.450212 
375.000000	61.449984 
375.500000	61.437242 
376.000000	61.447424 
376.500000	61.536310 
377.000000	61.606643 
377.500000	61.649439 
378.000000	61.677666 
378.500000	61.754924 
379.000000	61.861803 
379.500000	61.940643 
380.000000	61.993848 
380.500000	62.061734 
381.000000	62.106234 
381.500000	62.220689 
382.000000	62.263992 
382.500000	62.266939 
383.000000	62.221409 
383.500000	62.374999 
384.000000	62.640704 
384.500000	62.884939 
385.000000	62.949393 
385.500000	62.992098 
386.000000	63.110734 
386.500000	63.255356 
387.000000	63.420393 
387.500000	63.568810 
388.000000	63.744409 
388.500000	64.005477 
389.000000	64.312727 
389.500000	64.503780 
390.000000	64.536007 
390.500000	64.564174 
391.000000	64.769318 
391.500000	65.019181 
392.000000	65.152492 
392.500000	65.169651 
393.000000	65.276969 
393.500000	65.438787 
394.000000	65.589969 
394.500000	65.614734 
395.000000	65.605356 
395.500000	65.642166 
396.000000	65.818212 
396.500000	66.054492 
397.000000	66.236606 
397.500000	66.285143 
398.000000	66.254416 
398.500000	66.252000 
399.000000	66.339833 
399.500000	66.501128 
400.000000	66.634287 
400.500000	66.624113 
401.000000	66.516128 
401.500000	66.455924 
402.000000	66.550772 
402.500000	66.670113 
403.000000	66.705962 
403.500000	66.654090 
404.000000	66.637469 
404.500000	66.602136 
405.000000	66.511159 
405.500000	66.370674 
406.000000	66.390575 
406.500000	66.519750 
407.000000	66.652060 
407.500000	66.566772 
408.000000	66.373022 
408.500000	66.135500 
409.000000	66.037113 
409.500000	66.018227 
410.000000	66.050613 
410.500000	66.027060 
411.000000	65.931280 
411.500000	65.830954 
412.000000	65.809598 
412.500000	65.835143 
413.000000	65.772280 
413.500000	65.659469 
414.000000	65.513181 
414.500000	65.343409 
415.000000	65.090446 
415.500000	64.857916 
416.000000	64.753462 
416.500000	64.789825 
417.000000	64.795090 
417.500000	64.711848 
418.000000	64.511598 
418.500000	64.249090 
419.000000	64.020878 
419.500000	63.889121 
420.000000	63.772393 
420.500000	63.612090 
421.000000	63.400901 
421.500000	63.204227 
422.000000	63.013234 
422.500000	62.800606 
423.000000	62.585363 
423.500000	62.379939 
424.000000	62.081833 
424.500000	61.619386 
425.000000	61.153992 
425.500000	60.773628 
426.000000	60.522068 
426.500000	60.227204 
427.000000	59.893136 
427.500000	59.490757 
428.000000	59.179181 
428.500000	58.902045 
429.000000	58.684484 
429.500000	58.357803 
430.000000	57.900833 
430.500000	57.361833 
431.000000	56.943606 
431.500000	56.651295 
432.000000	56.401196 
432.500000	56.117507 
433.000000	55.756560 
433.500000	55.371265 
434.000000	55.007401 
434.500000	54.678704 
435.000000	54.321871 
435.500000	53.864553 
436.000000	53.417530 
436.500000	53.043727 
437.000000	52.675196 
437.500000	52.220545 
438.000000	51.792075 
438.500000	51.430780 
439.000000	51.072613 
439.500000	50.692833 
440.000000	50.281333 
440.500000	49.876606 
441.000000	49.426984 
441.500000	48.962575 
442.000000	48.543492 
442.500000	48.184749 
443.000000	47.882469 
443.500000	47.542068 
444.000000	47.105075 
444.500000	46.576666 
445.000000	46.077431 
445.500000	45.647219 
446.000000	45.257977 
446.500000	44.856181 
447.000000	44.403234 
447.500000	43.955886 
448.000000	43.568159 
448.500000	43.228075 
449.000000	42.865606 
449.500000	42.424416 
450.000000	41.952545 
450.500000	41.488803 
451.000000	41.070787 
451.500000	40.669386 
452.000000	40.304015 
452.500000	39.884598 
453.000000	39.461507 
453.500000	39.065166 
454.000000	38.699628 
454.500000	38.310371 
455.000000	37.853416 
455.500000	37.400143 
456.000000	36.980068 
456.500000	36.642212 
457.000000	36.236265 
457.500000	35.808212 
458.000000	35.348113 
458.500000	35.003151 
459.000000	34.674522 
459.500000	34.349924 
460.000000	33.991750 
460.500000	33.636750 
461.000000	33.260689 
461.500000	32.898575 
462.000000	32.520098 
462.500000	32.139825 
463.000000	31.711234 
463.500000	31.297969 
464.000000	30.871795 
464.500000	30.522984 
465.000000	30.222939 
465.500000	29.962189 
466.000000	29.634984 
466.500000	29.320431 
467.000000	29.045356 
467.500000	28.771128 
468.000000	28.414628 
468.500000	28.063030 
469.000000	27.737340 
469.500000	27.421378 
470.000000	27.055969 
470.500000	26.740356 
471.000000	26.480212 
471.500000	26.278242 
472.000000	26.030742 
472.500000	25.762060 
473.000000	25.462681 
473.500000	25.145356 
474.000000	24.788848 
474.500000	24.467469 
475.000000	24.206007 
475.500000	23.992545 
476.000000	23.737098 
476.500000	23.464909 
477.000000	23.238000 
477.500000	23.055280 
478.000000	22.867734 
478.500000	22.633348 
479.000000	22.398924 
479.500000	22.131825 
480.000000	21.896325 
480.500000	21.678931 
481.000000	21.528916 
481.500000	21.327121 
482.000000	21.053659 
482.500000	20.731272 
483.000000	20.543068 
483.500000	20.448530 
484.000000	20.341666 
484.500000	20.107871 
485.000000	19.814295 
485.500000	19.566871 
486.000000	19.375106 
486.500000	19.189280 
487.000000	18.971401 
487.500000	18.764704 
488.000000	18.569977 
488.500000	18.415143 
489.000000	18.240318 
489.500000	18.043681 
490.000000	17.846803 
490.500000	17.693409 
491.000000	17.569886 
491.500000	17.391098 
492.000000	17.142189 
492.500000	16.892977 
493.000000	16.730015 
493.500000	16.592477 
494.000000	16.436628 
494.500000	16.267000 
495.000000	16.108242 
495.500000	15.968863 
496.000000	15.808257 
496.500000	15.645598 
497.000000	15.455606 
497.500000	15.288196 
498.000000	15.145757 
498.500000	15.028651 
499.000000	14.889704 
499.500000	14.756992 
500.000000	14.637181 
500.500000	14.512204 
501.000000	14.376848 
501.500000	14.236090 
502.000000	14.113992 
502.500000	13.967757 
503.000000	13.822469 
503.500000	13.699371 
504.000000	13.629303 
504.500000	13.538734 
505.000000	13.405500 
505.500000	13.235098 
506.000000	13.134575 
506.500000	13.109174 
507.000000	13.088242 
507.500000	12.964772 
508.000000	12.747560 
508.500000	12.519492 
509.000000	12.346174 
509.500000	12.237825 
510.000000	12.181000 
510.500000	12.132386 
511.000000	12.060818 
511.500000	11.944689 
512.000000	11.797969 
512.500000	11.637484 
513.000000	11.504371 
513.500000	11.414659 
514.000000	11.346500 
514.500000	11.262681 
515.000000	11.147962 
515.500000	11.055515 
516.000000	10.941818 
516.500000	10.828924 
517.000000	10.697530 
517.500000	10.646477 
518.000000	10.604234 
518.500000	10.528393 
519.000000	10.368825 
519.500000	10.252893 
520.000000	10.181068 
520.500000	10.108856 
521.000000	10.001613 
521.500000	9.917499  
522.000000	9.863280  
522.500000	9.794196  
523.000000	9.684212  
523.500000	9.603265  
524.000000	9.551212  
524.500000	9.517045  
525.000000	9.465590  
525.500000	9.415863  
526.000000	9.330545  
526.500000	9.240522  
527.000000	9.156522  
527.500000	9.105537  
528.000000	9.071181  
528.500000	9.024522  
529.000000	8.967886  
529.500000	8.891007  
530.000000	8.803954  
530.500000	8.694643  
531.000000	8.575363  
531.500000	8.481371  
532.000000	8.442272  
532.500000	8.421840  
533.000000	8.353621  
533.500000	8.223090  
534.000000	8.074719  
534.500000	7.957083  
535.000000	7.891772  
535.500000	7.849484  
536.000000	7.828750  
536.500000	7.762689  
537.000000	7.685318  
537.500000	7.598136  
538.000000	7.512977  
538.500000	7.424106  
539.000000	7.347772  
539.500000	7.268500  
540.000000	7.188015  
540.500000	7.120810  
541.000000	7.084378  
541.500000	7.077772  
542.000000	7.060924  
542.500000	7.012916  
543.000000	6.950780  
543.500000	6.877227  
544.000000	6.835310  
544.500000	6.797356  
545.000000	6.735931  
545.500000	6.636977  
546.000000	6.557477  
546.500000	6.512840  
547.000000	6.490787  
547.500000	6.471643  
548.000000	6.447742  
548.500000	6.433507  
549.000000	6.403583  
549.500000	6.355560  
550.000000	6.290000  

