PE FL                   SPECTRUM    ASCII       PEDS        1.60        
  -1
01#211.SP
02/03/21
04:57:38.00
02/03/21
04:59:15.00


450.000000
1









LS55
275.00
5.00
5.00
SCAN
1
20
100
100
0
100
0
1
0
1
7
ON
400 235 
1 0 0
#HDR
-1
-1
#GR
NM

0.00002384185791015625
0.0
300.000000
0.500000
301
8
306.776704
6.725000
#DATA
300.000000	6.725000   
300.500000	10.275651  
301.000000	14.493803  
301.500000	19.979378  
302.000000	27.079462  
302.500000	36.056469  
303.000000	47.105568  
303.500000	60.045742  
304.000000	74.660340  
304.500000	90.443515  
305.000000	107.120893 
305.500000	124.357030 
306.000000	142.387484 
306.500000	160.734393 
307.000000	179.306689 
307.500000	197.291386 
308.000000	214.244242 
308.500000	229.559621 
309.000000	243.196212 
309.500000	255.181106 
310.000000	265.693022 
310.500000	274.799272 
311.000000	282.700045 
311.500000	289.600106 
312.000000	294.975446 
312.500000	298.619712 
313.000000	301.160575 
313.500000	303.069250 
314.000000	304.601818 
314.500000	305.758060 
315.000000	306.619303 
315.500000	306.776704 
316.000000	306.213878 
316.500000	305.009598 
317.000000	304.046780 
317.500000	303.330022 
318.000000	302.371765 
318.500000	300.502083 
319.000000	298.068931 
319.500000	295.905803 
320.000000	294.557939 
320.500000	293.398416 
321.000000	291.559166 
321.500000	289.473333 
322.000000	287.165530 
322.500000	284.861500 
323.000000	282.136931 
323.500000	279.382522 
324.000000	276.482863 
324.500000	273.766393 
325.000000	271.433530 
325.500000	269.260060 
326.000000	266.694613 
326.500000	263.597303 
327.000000	260.644454 
327.500000	257.976212 
328.000000	255.546333 
328.500000	253.090507 
329.000000	250.521651 
329.500000	247.495742 
330.000000	244.026674 
330.500000	240.804295 
331.000000	238.197507 
331.500000	235.863613 
332.000000	233.589909 
332.500000	231.261916 
333.000000	229.090007 
333.500000	226.946121 
334.000000	225.060712 
334.500000	223.078818 
335.000000	221.085780 
335.500000	219.105121 
336.000000	217.665863 
336.500000	216.388712 
337.000000	215.004962 
337.500000	213.678878 
338.000000	212.861583 
338.500000	212.437530 
339.000000	211.914462 
339.500000	211.222833 
340.000000	210.450818 
340.500000	210.023568 
341.000000	210.021106 
341.500000	210.191924 
342.000000	210.144568 
342.500000	209.830560 
343.000000	209.102848 
343.500000	207.939840 
344.000000	206.700189 
344.500000	205.574340 
345.000000	204.454037 
345.500000	202.902136 
346.000000	201.574469 
346.500000	200.474901 
347.000000	199.494863 
347.500000	197.913416 
348.000000	196.176590 
348.500000	194.517128 
349.000000	193.104719 
349.500000	191.750946 
350.000000	190.532166 
350.500000	189.552893 
351.000000	189.020840 
351.500000	188.895727 
352.000000	188.970833 
352.500000	188.958189 
353.000000	189.018689 
353.500000	189.091712 
354.000000	189.520045 
354.500000	190.044992 
355.000000	190.799818 
355.500000	191.706613 
356.000000	192.914325 
356.500000	194.318386 
357.000000	195.675863 
357.500000	196.979598 
358.000000	198.090598 
358.500000	199.291833 
359.000000	200.199810 
359.500000	201.037106 
360.000000	201.655666 
360.500000	202.442272 
361.000000	203.173916 
361.500000	203.889053 
362.000000	204.408757 
362.500000	204.791356 
363.000000	204.922704 
363.500000	204.565734 
364.000000	203.737409 
364.500000	202.700969 
365.000000	201.747113 
365.500000	200.937674 
366.000000	200.012075 
366.500000	199.032439 
367.000000	198.059575 
367.500000	197.121515 
368.000000	195.984628 
368.500000	194.593159 
369.000000	193.048121 
369.500000	191.565636 
370.000000	190.499022 
370.500000	190.028356 
371.000000	190.070946 
371.500000	189.838992 
372.000000	189.390969 
372.500000	188.710272 
373.000000	188.211174 
373.500000	187.755780 
374.000000	187.726166 
374.500000	187.678946 
375.000000	187.570174 
375.500000	187.121515 
376.000000	186.900530 
376.500000	186.825893 
377.000000	186.877090 
377.500000	186.823280 
378.000000	186.735106 
378.500000	186.534772 
379.000000	186.465984 
379.500000	186.388166 
380.000000	186.254727 
380.500000	185.988878 
381.000000	185.754886 
381.500000	185.411022 
382.000000	184.704295 
382.500000	183.648840 
383.000000	182.536954 
383.500000	181.448500 
384.000000	180.504530 
384.500000	179.669765 
385.000000	179.005348 
385.500000	178.257143 
386.000000	177.419181 
386.500000	176.360431 
387.000000	175.166454 
387.500000	173.683257 
388.000000	172.165954 
388.500000	170.984825 
389.000000	169.871689 
389.500000	168.765871 
390.000000	167.331909 
390.500000	166.232462 
391.000000	165.113590 
391.500000	164.123863 
392.000000	163.030378 
392.500000	162.117318 
393.000000	161.041848 
393.500000	159.820227 
394.000000	158.642787 
394.500000	157.622303 
395.000000	156.665257 
395.500000	155.592840 
396.000000	154.731015 
396.500000	154.052378 
397.000000	153.266515 
397.500000	152.178590 
398.000000	151.010613 
398.500000	150.263772 
399.000000	149.856030 
399.500000	149.286537 
400.000000	148.453000 
400.500000	147.684530 
401.000000	147.163734 
401.500000	146.733757 
402.000000	146.252969 
402.500000	145.512325 
403.000000	144.804212 
403.500000	144.116750 
404.000000	143.702848 
404.500000	143.129696 
405.000000	142.517250 
405.500000	141.922386 
406.000000	141.215969 
406.500000	140.107613 
407.000000	138.960333 
407.500000	138.250553 
408.000000	137.732704 
408.500000	137.322484 
409.000000	136.841856 
409.500000	136.443696 
410.000000	135.613022 
410.500000	134.459871 
411.000000	133.109575 
411.500000	132.221007 
412.000000	131.736454 
412.500000	131.510454 
413.000000	130.775424 
413.500000	129.836689 
414.000000	129.008969 
414.500000	128.571143 
415.000000	128.006636 
415.500000	127.339378 
416.000000	126.833204 
416.500000	126.616962 
417.000000	126.449916 
417.500000	125.999500 
418.000000	125.474643 
418.500000	125.107727 
419.000000	125.092462 
419.500000	124.925196 
420.000000	124.553159 
420.500000	124.073340 
421.000000	123.879287 
421.500000	123.546318 
422.000000	122.878348 
422.500000	121.952500 
423.000000	121.145318 
423.500000	120.514575 
424.000000	119.689500 
424.500000	118.615992 
425.000000	117.352257 
425.500000	116.278196 
426.000000	115.171053 
426.500000	114.005537 
427.000000	112.520015 
427.500000	111.090787 
428.000000	109.872310 
428.500000	108.886310 
429.000000	107.876477 
429.500000	107.010189 
430.000000	106.302613 
430.500000	105.699992 
431.000000	105.007257 
431.500000	104.212598 
432.000000	103.480272 
432.500000	102.841734 
433.000000	102.217946 
433.500000	101.410492 
434.000000	100.531734 
434.500000	99.544696  
435.000000	98.720613  
435.500000	98.015666  
436.000000	97.457083  
436.500000	96.803537  
437.000000	96.006287  
437.500000	95.033507  
438.000000	94.089083  
438.500000	93.289128  
439.000000	92.638234  
439.500000	92.005356  
440.000000	91.424363  
440.500000	90.809575  
441.000000	90.274977  
441.500000	89.633492  
442.000000	88.908083  
442.500000	88.055333  
443.000000	87.163242  
443.500000	86.200409  
444.000000	85.397886  
444.500000	84.847590  
445.000000	84.472628  
445.500000	84.121848  
446.000000	83.630507  
446.500000	83.001833  
447.000000	82.188840  
447.500000	81.351378  
448.000000	80.623598  
448.500000	80.120916  
449.000000	79.481295  
449.500000	78.325734  
450.000000	76.602999  

