PE FL                   SPECTRUM    ASCII       PEDS        1.60        
  -1
01#205.SP
02/03/21
04:37:33.00
02/03/21
04:39:12.00


380.000000
1









LS55
420.00
5.00
5.00
SCAN
1
20
100
100
0
100
0
0
0
1
7
ON
480 440 
1 0 0
#HDR
-1
-1
#GR
NM

0.00002384185791015625
0.0
230.000000
0.500000
301
8
89.949999
23.614674
#DATA
230.000000	30.058000 
230.500000	31.445878 
231.000000	32.611295 
231.500000	33.735227 
232.000000	35.327257 
232.500000	37.666825 
233.000000	40.764121 
233.500000	44.760674 
234.000000	49.804106 
234.500000	55.779530 
235.000000	61.874803 
235.500000	66.850606 
236.000000	69.497151 
236.500000	68.803628 
237.000000	64.881810 
237.500000	58.524772 
238.000000	51.288954 
238.500000	44.324818 
239.000000	38.807219 
239.500000	34.966310 
240.000000	32.569984 
240.500000	31.047325 
241.000000	29.959962 
241.500000	29.071931 
242.000000	28.129204 
242.500000	27.314878 
243.000000	26.754795 
243.500000	26.271075 
244.000000	25.612757 
244.500000	24.856696 
245.000000	24.339924 
245.500000	23.995863 
246.000000	23.784856 
246.500000	23.614674 
247.000000	23.663545 
247.500000	23.952416 
248.000000	24.479833 
248.500000	25.076257 
249.000000	25.797174 
249.500000	26.677833 
250.000000	27.752780 
250.500000	28.710689 
251.000000	29.483924 
251.500000	30.206545 
252.000000	30.970340 
252.500000	31.557386 
253.000000	31.852696 
253.500000	32.037825 
254.000000	32.200628 
254.500000	32.176128 
255.000000	31.729340 
255.500000	31.062143 
256.000000	30.274772 
256.500000	29.403030 
257.000000	28.463250 
257.500000	27.693196 
258.000000	27.262613 
258.500000	27.115765 
259.000000	27.146916 
259.500000	27.456272 
260.000000	27.962659 
260.500000	28.602356 
261.000000	29.282310 
261.500000	30.001189 
262.000000	30.593689 
262.500000	31.108780 
263.000000	31.571613 
263.500000	32.046757 
264.000000	32.308939 
264.500000	32.438196 
265.000000	32.520590 
265.500000	32.637219 
266.000000	32.703143 
266.500000	32.735151 
267.000000	32.723954 
267.500000	32.656825 
268.000000	32.519356 
268.500000	32.371234 
269.000000	32.287431 
269.500000	32.216265 
270.000000	32.218318 
270.500000	32.237492 
271.000000	32.348386 
271.500000	32.477196 
272.000000	32.569045 
272.500000	32.528621 
273.000000	32.484083 
273.500000	32.480856 
274.000000	32.436265 
274.500000	32.241106 
275.000000	32.053515 
275.500000	31.990151 
276.000000	31.920848 
276.500000	31.777500 
277.000000	31.565848 
277.500000	31.430363 
278.000000	31.296007 
278.500000	31.115787 
279.000000	30.898818 
279.500000	30.661659 
280.000000	30.359939 
280.500000	30.006924 
281.000000	29.651212 
281.500000	29.307000 
282.000000	28.990878 
282.500000	28.689310 
283.000000	28.401992 
283.500000	28.177750 
284.000000	27.962757 
284.500000	27.828659 
285.000000	27.686386 
285.500000	27.562856 
286.000000	27.403219 
286.500000	27.217075 
287.000000	26.972333 
287.500000	26.705113 
288.000000	26.464386 
288.500000	26.275553 
289.000000	26.180886 
289.500000	26.106446 
290.000000	26.038265 
290.500000	25.891492 
291.000000	25.732075 
291.500000	25.613757 
292.000000	25.604909 
292.500000	25.634363 
293.000000	25.667719 
293.500000	25.656787 
294.000000	25.644757 
294.500000	25.728598 
295.000000	25.949393 
295.500000	26.389250 
296.000000	26.866136 
296.500000	27.365431 
297.000000	27.896871 
297.500000	28.658568 
298.000000	29.551939 
298.500000	30.469378 
299.000000	31.396939 
299.500000	32.505401 
300.000000	33.780484 
300.500000	35.059000 
301.000000	36.182666 
301.500000	37.062227 
302.000000	37.861515 
302.500000	38.640015 
303.000000	39.469689 
303.500000	40.192348 
304.000000	40.780530 
304.500000	41.159628 
305.000000	41.469606 
305.500000	41.718106 
306.000000	41.971166 
306.500000	42.200121 
307.000000	42.291075 
307.500000	42.238106 
308.000000	42.122719 
308.500000	42.147787 
309.000000	42.234553 
309.500000	42.141909 
310.000000	41.767340 
310.500000	41.311545 
311.000000	40.941386 
311.500000	40.768060 
312.000000	40.824265 
312.500000	40.956916 
313.000000	40.868833 
313.500000	40.576333 
314.000000	40.240000 
314.500000	40.052348 
315.000000	39.999522 
315.500000	40.059719 
316.000000	40.198765 
316.500000	40.237598 
317.000000	40.162151 
317.500000	40.056242 
318.000000	39.965424 
318.500000	39.884515 
319.000000	39.906250 
319.500000	40.076924 
320.000000	40.269454 
320.500000	40.389022 
321.000000	40.454856 
321.500000	40.618484 
322.000000	40.749083 
322.500000	40.808590 
323.000000	40.880977 
323.500000	41.176901 
324.000000	41.551636 
324.500000	41.871795 
325.000000	42.046727 
325.500000	42.225128 
326.000000	42.485886 
326.500000	42.828250 
327.000000	43.170553 
327.500000	43.495227 
328.000000	43.834106 
328.500000	44.229916 
329.000000	44.593159 
329.500000	44.855750 
330.000000	45.109295 
330.500000	45.495719 
331.000000	45.984666 
331.500000	46.495234 
332.000000	47.041060 
332.500000	47.607363 
333.000000	48.163840 
333.500000	48.573000 
334.000000	48.960507 
334.500000	49.355924 
335.000000	49.845643 
335.500000	50.283537 
336.000000	50.645333 
336.500000	50.902795 
337.000000	51.294219 
337.500000	51.805946 
338.000000	52.447348 
338.500000	52.989590 
339.000000	53.426568 
339.500000	53.677265 
340.000000	53.985954 
340.500000	54.472378 
341.000000	55.168462 
341.500000	55.832999 
342.000000	56.341962 
342.500000	56.792863 
343.000000	57.222946 
343.500000	57.572325 
344.000000	57.904583 
344.500000	58.372484 
345.000000	59.024454 
345.500000	59.715560 
346.000000	60.385318 
346.500000	60.911484 
347.000000	61.458628 
347.500000	62.018803 
348.000000	62.675886 
348.500000	63.332348 
349.000000	63.945340 
349.500000	64.556462 
350.000000	65.189492 
350.500000	65.832196 
351.000000	66.488659 
351.500000	67.110613 
352.000000	67.649500 
352.500000	68.005886 
353.000000	68.430689 
353.500000	69.028462 
354.000000	69.899621 
354.500000	70.707606 
355.000000	71.449825 
355.500000	72.131871 
356.000000	72.860787 
356.500000	73.552810 
357.000000	74.142893 
357.500000	74.659227 
358.000000	75.131454 
358.500000	75.596234 
359.000000	76.089492 
359.500000	76.604553 
360.000000	77.208401 
360.500000	77.784363 
361.000000	78.345295 
361.500000	78.769893 
362.000000	79.197401 
362.500000	79.615643 
363.000000	80.077833 
363.500000	80.428371 
364.000000	80.786757 
364.500000	81.213924 
365.000000	81.690575 
365.500000	82.040977 
366.000000	82.316689 
366.500000	82.603431 
367.000000	82.968507 
367.500000	83.223068 
368.000000	83.464075 
368.500000	83.741045 
369.000000	84.040075 
369.500000	84.160969 
370.000000	84.157727 
370.500000	84.172674 
371.000000	84.478636 
371.500000	85.025128 
372.000000	85.552499 
372.500000	85.759560 
373.000000	85.667833 
373.500000	85.629924 
374.000000	85.905143 
374.500000	86.404818 
375.000000	86.816568 
375.500000	87.055371 
376.000000	87.113606 
376.500000	87.125803 
377.000000	87.089750 
377.500000	87.213924 
378.000000	87.483121 
378.500000	87.857795 
379.000000	88.278227 
379.500000	88.961803 
380.000000	89.949999 

