PE FL                   SPECTRUM    ASCII       PEDS        1.60        
  -1
01#217.SP
02/03/21
05:24:29.00
02/03/21
05:26:06.00


470.000000
1









LS55
280.00
5.00
5.00
SCAN
1
20
100
100
0
100
0
1
0
1
7
ON
450 243 
1 0 0
#HDR
-1
-1
#GR
NM

0.00002384185791015625
0.0
320.000000
0.500000
301
8
42.973454
20.488000
#DATA
320.000000	20.488000 
320.500000	21.461348 
321.000000	21.814053 
321.500000	21.656401 
322.000000	21.555053 
322.500000	21.668916 
323.000000	21.743992 
323.500000	21.672462 
324.000000	21.600674 
324.500000	21.656272 
325.000000	21.809280 
325.500000	21.886257 
326.000000	21.873515 
326.500000	21.822613 
327.000000	21.772462 
327.500000	21.671893 
328.000000	21.647083 
328.500000	21.705015 
329.000000	21.839515 
329.500000	21.901818 
330.000000	21.906371 
330.500000	21.904886 
331.000000	21.953606 
331.500000	21.992787 
332.000000	21.993446 
332.500000	21.929462 
333.000000	21.890212 
333.500000	21.962295 
334.000000	22.115469 
334.500000	22.181962 
335.000000	22.139348 
335.500000	22.080727 
336.000000	22.101651 
336.500000	22.208492 
337.000000	22.344507 
337.500000	22.495840 
338.000000	22.578848 
338.500000	22.606303 
339.000000	22.619863 
339.500000	22.807515 
340.000000	23.080757 
340.500000	23.273250 
341.000000	23.248310 
341.500000	23.126280 
342.000000	23.072840 
342.500000	23.136992 
343.000000	23.270060 
343.500000	23.343393 
344.000000	23.374681 
344.500000	23.365462 
345.000000	23.458628 
345.500000	23.547303 
346.000000	23.662462 
346.500000	23.763287 
347.000000	23.932931 
347.500000	24.014977 
348.000000	23.993621 
348.500000	23.873560 
349.000000	23.808765 
349.500000	23.832628 
350.000000	23.888068 
350.500000	23.861568 
351.000000	23.742765 
351.500000	23.771280 
352.000000	24.019022 
352.500000	24.259946 
353.000000	24.301424 
353.500000	24.252628 
354.000000	24.271606 
354.500000	24.340757 
355.000000	24.389121 
355.500000	24.484348 
356.000000	24.630310 
356.500000	24.682143 
357.000000	24.632250 
357.500000	24.616803 
358.000000	24.628643 
358.500000	24.733462 
359.000000	24.899287 
359.500000	25.084128 
360.000000	25.125962 
360.500000	25.064363 
361.000000	24.928371 
361.500000	24.871007 
362.000000	24.791333 
362.500000	24.834651 
363.000000	24.952568 
363.500000	25.121386 
364.000000	25.212128 
364.500000	25.230848 
365.000000	25.125992 
365.500000	25.071969 
366.000000	25.147795 
366.500000	25.381795 
367.000000	25.538848 
367.500000	25.566181 
368.000000	25.541196 
368.500000	25.636863 
369.000000	25.802780 
369.500000	25.986219 
370.000000	26.166575 
370.500000	26.301568 
371.000000	26.384143 
371.500000	26.358431 
372.000000	26.311946 
372.500000	26.303946 
373.000000	26.400053 
373.500000	26.553863 
374.000000	26.634621 
374.500000	26.664295 
375.000000	26.695053 
375.500000	26.767401 
376.000000	26.810780 
376.500000	26.760659 
377.000000	26.703363 
377.500000	26.825909 
378.000000	27.173356 
378.500000	27.526962 
379.000000	27.657310 
379.500000	27.555696 
380.000000	27.400007 
380.500000	27.345409 
381.000000	27.355075 
381.500000	27.458242 
382.000000	27.569553 
382.500000	27.735636 
383.000000	27.880045 
383.500000	27.987015 
384.000000	27.989946 
384.500000	28.041704 
385.000000	28.106568 
385.500000	28.179787 
386.000000	28.206689 
386.500000	28.251803 
387.000000	28.340681 
387.500000	28.525545 
388.000000	28.870803 
388.500000	29.281060 
389.000000	29.585568 
389.500000	29.888719 
390.000000	30.319568 
390.500000	30.844053 
391.000000	31.162431 
391.500000	31.341712 
392.000000	31.426219 
392.500000	31.590469 
393.000000	31.746287 
393.500000	31.943939 
394.000000	32.218196 
394.500000	32.492166 
395.000000	32.643863 
395.500000	32.645113 
396.000000	32.726568 
396.500000	32.839515 
397.000000	32.978204 
397.500000	32.942121 
398.000000	32.916515 
398.500000	32.946977 
399.000000	33.121537 
399.500000	33.331628 
400.000000	33.590916 
400.500000	33.769295 
401.000000	33.928113 
401.500000	34.002060 
402.000000	34.113621 
402.500000	34.279681 
403.000000	34.562310 
403.500000	34.811340 
404.000000	35.006068 
404.500000	35.100946 
405.000000	35.210568 
405.500000	35.339356 
406.000000	35.490674 
406.500000	35.716424 
407.000000	35.959795 
407.500000	36.203446 
408.000000	36.384204 
408.500000	36.518621 
409.000000	36.649401 
409.500000	36.861962 
410.000000	37.152250 
410.500000	37.368151 
411.000000	37.474848 
411.500000	37.552590 
412.000000	37.811787 
412.500000	38.173303 
413.000000	38.427530 
413.500000	38.588045 
414.000000	38.741863 
414.500000	39.011803 
415.000000	39.265522 
415.500000	39.543916 
416.000000	39.805840 
416.500000	40.179219 
417.000000	40.532598 
417.500000	40.904295 
418.000000	41.230818 
418.500000	41.607371 
419.000000	41.931568 
419.500000	42.241977 
420.000000	42.485977 
420.500000	42.678651 
421.000000	42.701833 
421.500000	42.765537 
422.000000	42.889159 
422.500000	42.973454 
423.000000	42.691401 
423.500000	42.199977 
424.000000	41.761553 
424.500000	41.457053 
425.000000	40.920181 
425.500000	40.285060 
426.000000	39.735575 
426.500000	39.410575 
427.000000	38.973015 
427.500000	38.419954 
428.000000	37.837598 
428.500000	37.432757 
429.000000	37.015310 
429.500000	36.587015 
430.000000	36.070598 
430.500000	35.628757 
431.000000	35.322977 
431.500000	35.233348 
432.000000	35.160015 
432.500000	34.946174 
433.000000	34.571083 
433.500000	34.279250 
434.000000	34.040409 
434.500000	33.818712 
435.000000	33.513977 
435.500000	33.240098 
436.000000	32.940469 
436.500000	32.658409 
437.000000	32.422780 
437.500000	32.233674 
438.000000	32.070151 
438.500000	31.870575 
439.000000	31.692234 
439.500000	31.399893 
440.000000	31.103303 
440.500000	30.845643 
441.000000	30.717030 
441.500000	30.481992 
442.000000	30.167704 
442.500000	29.889863 
443.000000	29.763772 
443.500000	29.642083 
444.000000	29.539484 
444.500000	29.394015 
445.000000	29.252234 
445.500000	28.980643 
446.000000	28.725924 
446.500000	28.559984 
447.000000	28.498181 
447.500000	28.301159 
448.000000	28.088803 
448.500000	27.875825 
449.000000	27.739378 
449.500000	27.449848 
450.000000	27.112083 
450.500000	26.786825 
451.000000	26.660030 
451.500000	26.614083 
452.000000	26.530121 
452.500000	26.259462 
453.000000	25.898371 
453.500000	25.580431 
454.000000	25.386643 
454.500000	25.288984 
455.000000	25.227189 
455.500000	25.091515 
456.000000	24.869674 
456.500000	24.715037 
457.000000	24.699250 
457.500000	24.749196 
458.000000	24.734234 
458.500000	24.744765 
459.000000	24.747477 
459.500000	24.732477 
460.000000	24.549227 
460.500000	24.293053 
461.000000	23.970856 
461.500000	23.671984 
462.000000	23.423681 
462.500000	23.156454 
463.000000	22.905545 
463.500000	22.718401 
464.000000	22.642128 
464.500000	22.538136 
465.000000	22.397810 
465.500000	22.182136 
466.000000	22.022250 
466.500000	21.937416 
467.000000	21.943795 
467.500000	21.911916 
468.000000	21.811030 
468.500000	21.626045 
469.000000	21.569515 
469.500000	21.789553 
470.000000	22.265000 

