PE FL                   SPECTRUM    ASCII       PEDS        1.60        
  -1
01#213.SP
02/03/21
05:02:30.00
02/03/21
05:05:08.00


650.000000
1









LS55
365.00
5.00
5.00
SCAN
1
20
100
100
0
100
0
1
0
1
7
ON
550 315 
1 0 0
#HDR
-1
-1
#GR
NM

0.00002384185791015625
0.0
400.000000
0.500000
501
8
292.116000
61.928484
#DATA
400.000000	292.116000 
400.500000	288.763045 
401.000000	285.332469 
401.500000	282.129136 
402.000000	279.597969 
402.500000	277.592318 
403.000000	275.717583 
403.500000	273.899977 
404.000000	272.283356 
404.500000	270.921439 
405.000000	269.874287 
405.500000	268.992060 
406.000000	268.054212 
406.500000	266.966530 
407.000000	266.065674 
407.500000	265.581318 
408.000000	265.243000 
408.500000	264.524946 
409.000000	263.406886 
409.500000	262.182143 
410.000000	261.291840 
410.500000	260.788886 
411.000000	260.527643 
411.500000	260.064219 
412.000000	259.407401 
412.500000	258.757810 
413.000000	257.970310 
413.500000	257.004553 
414.000000	255.972818 
414.500000	255.304515 
415.000000	254.500810 
415.500000	253.495537 
416.000000	252.436628 
416.500000	251.984780 
417.000000	251.928734 
417.500000	251.967196 
418.000000	251.860393 
418.500000	251.395568 
419.000000	250.861863 
419.500000	250.446098 
420.000000	250.556166 
420.500000	250.424962 
421.000000	249.772310 
421.500000	248.677265 
422.000000	247.897871 
422.500000	247.150318 
423.000000	246.131462 
423.500000	244.669083 
424.000000	243.343424 
424.500000	242.300325 
425.000000	241.453348 
425.500000	240.214946 
426.000000	238.773909 
426.500000	237.255484 
427.000000	235.932356 
427.500000	234.514325 
428.000000	233.019492 
428.500000	231.683954 
429.000000	230.844734 
429.500000	230.294553 
430.000000	229.660772 
430.500000	228.884166 
431.000000	228.094924 
431.500000	227.683734 
432.000000	227.570772 
432.500000	227.624734 
433.000000	227.774530 
433.500000	228.089757 
434.000000	228.557833 
434.500000	229.099537 
435.000000	229.469007 
435.500000	229.567242 
436.000000	229.557015 
436.500000	229.430969 
437.000000	229.194462 
437.500000	228.501083 
438.000000	227.734060 
438.500000	226.782356 
439.000000	225.483674 
439.500000	223.474356 
440.000000	221.219000 
440.500000	219.037469 
441.000000	216.931803 
441.500000	214.563083 
442.000000	211.818037 
442.500000	209.061939 
443.000000	206.465886 
443.500000	204.097681 
444.000000	201.890431 
444.500000	199.862954 
445.000000	198.048871 
445.500000	196.246924 
446.000000	194.339333 
446.500000	192.457136 
447.000000	190.735386 
447.500000	189.363916 
448.000000	188.033840 
448.500000	186.591840 
449.000000	184.795643 
449.500000	183.000674 
450.000000	181.409863 
450.500000	179.996068 
451.000000	178.521007 
451.500000	177.021750 
452.000000	175.729121 
452.500000	174.523340 
453.000000	173.410636 
453.500000	172.137212 
454.000000	170.774878 
454.500000	169.316007 
455.000000	167.844325 
455.500000	166.516848 
456.000000	165.475068 
456.500000	164.562136 
457.000000	163.402280 
457.500000	162.027590 
458.000000	160.665234 
458.500000	159.629893 
459.000000	158.645871 
459.500000	157.547015 
460.000000	156.209265 
460.500000	154.796060 
461.000000	153.519189 
461.500000	152.355378 
462.000000	151.090780 
462.500000	149.450500 
463.000000	147.773734 
463.500000	146.231522 
464.000000	144.944863 
464.500000	143.769621 
465.000000	142.828840 
465.500000	141.997265 
466.000000	141.073227 
466.500000	139.996666 
467.000000	138.982454 
467.500000	138.175803 
468.000000	137.416795 
468.500000	136.673113 
469.000000	136.097606 
469.500000	135.983272 
470.000000	136.115249 
470.500000	136.132378 
471.000000	135.939280 
471.500000	135.880477 
472.000000	136.126621 
472.500000	136.458492 
473.000000	136.693045 
473.500000	136.886621 
474.000000	137.232893 
474.500000	137.468606 
475.000000	137.436803 
475.500000	137.253280 
476.000000	137.133409 
476.500000	137.036166 
477.000000	136.779227 
477.500000	136.433015 
478.000000	136.087946 
478.500000	135.777348 
479.000000	135.543507 
479.500000	135.410621 
480.000000	135.458924 
480.500000	135.657651 
481.000000	136.152803 
481.500000	136.747606 
482.000000	137.374196 
482.500000	138.087113 
483.000000	138.908424 
483.500000	139.601674 
484.000000	139.826333 
484.500000	139.818924 
485.000000	140.055166 
485.500000	140.589492 
486.000000	141.221621 
486.500000	141.943234 
487.000000	142.957712 
487.500000	144.388575 
488.000000	146.159795 
488.500000	148.139962 
489.000000	150.161068 
489.500000	152.077287 
490.000000	153.612727 
490.500000	154.809257 
491.000000	155.559333 
491.500000	155.886181 
492.000000	155.600007 
492.500000	154.511098 
493.000000	152.538189 
493.500000	149.856075 
494.000000	146.831196 
494.500000	143.806348 
495.000000	140.790560 
495.500000	137.742454 
496.000000	134.595128 
496.500000	131.579863 
497.000000	128.727280 
497.500000	126.160000 
498.000000	123.851272 
498.500000	121.881530 
499.000000	120.193507 
499.500000	118.744522 
500.000000	117.533598 
500.500000	116.497454 
501.000000	115.749909 
501.500000	115.240310 
502.000000	114.958136 
502.500000	114.855280 
503.000000	115.083106 
503.500000	115.643537 
504.000000	116.244113 
504.500000	116.672477 
505.000000	117.046651 
505.500000	117.641628 
506.000000	118.448689 
506.500000	119.179500 
507.000000	119.901295 
507.500000	120.494515 
508.000000	121.027439 
508.500000	121.293962 
509.000000	121.698659 
509.500000	122.195530 
510.000000	122.760500 
510.500000	122.946901 
511.000000	123.121696 
511.500000	123.441068 
512.000000	123.879295 
512.500000	124.019795 
513.000000	123.913969 
513.500000	123.875242 
514.000000	124.063037 
514.500000	124.141522 
515.000000	124.075053 
515.500000	124.161909 
516.000000	124.511287 
516.500000	124.789901 
517.000000	124.759643 
517.500000	124.476053 
518.000000	124.281128 
518.500000	124.027803 
519.000000	123.735446 
519.500000	123.249204 
520.000000	122.698174 
520.500000	122.139363 
521.000000	121.732765 
521.500000	121.365530 
522.000000	121.016886 
522.500000	120.605515 
523.000000	120.011212 
523.500000	119.279704 
524.000000	118.511386 
524.500000	118.006484 
525.000000	117.556901 
525.500000	117.025272 
526.000000	116.145189 
526.500000	115.109333 
527.000000	114.043696 
527.500000	113.295530 
528.000000	112.626537 
528.500000	111.810757 
529.000000	110.606878 
529.500000	109.418068 
530.000000	108.297931 
530.500000	107.114848 
531.000000	105.713007 
531.500000	104.326666 
532.000000	103.043128 
532.500000	101.890984 
533.000000	100.644196 
533.500000	99.221250  
534.000000	97.723500  
534.500000	96.293462  
535.000000	95.066878  
535.500000	94.021075  
536.000000	93.174742  
536.500000	92.210378  
537.000000	91.013356  
537.500000	89.705757  
538.000000	88.774272  
538.500000	88.088515  
539.000000	87.480166  
539.500000	86.770674  
540.000000	86.146280  
540.500000	85.559045  
541.000000	85.038924  
541.500000	84.539128  
542.000000	84.019310  
542.500000	83.443924  
543.000000	82.873977  
543.500000	82.417507  
544.000000	81.983825  
544.500000	81.524833  
545.000000	80.959606  
545.500000	80.424325  
546.000000	80.032386  
546.500000	79.871424  
547.000000	79.718022  
547.500000	79.391053  
548.000000	78.863696  
548.500000	78.355159  
549.000000	77.975583  
549.500000	77.735325  
550.000000	77.488075  
550.500000	77.249704  
551.000000	76.978310  
551.500000	76.669742  
552.000000	76.276810  
552.500000	75.874825  
553.000000	75.509909  
553.500000	75.261462  
554.000000	75.137515  
554.500000	75.026181  
555.000000	74.755143  
555.500000	74.363325  
556.000000	74.058060  
556.500000	73.941848  
557.000000	73.765590  
557.500000	73.605174  
558.000000	73.391378  
558.500000	73.247712  
559.000000	72.976840  
559.500000	72.756628  
560.000000	72.535204  
560.500000	72.377666  
561.000000	72.141189  
561.500000	72.036136  
562.000000	71.971636  
562.500000	71.824166  
563.000000	71.447568  
563.500000	71.104757  
564.000000	70.856227  
564.500000	70.746628  
565.000000	70.580068  
565.500000	70.414674  
566.000000	70.269598  
566.500000	70.164999  
567.000000	70.011242  
567.500000	69.833750  
568.000000	69.633704  
568.500000	69.383295  
569.000000	69.054969  
569.500000	68.803265  
570.000000	68.666613  
570.500000	68.569666  
571.000000	68.358749  
571.500000	68.098545  
572.000000	67.820772  
572.500000	67.546507  
573.000000	67.327166  
573.500000	67.203734  
574.000000	67.125295  
574.500000	66.918469  
575.000000	66.578727  
575.500000	66.244212  
576.000000	66.090840  
576.500000	65.969439  
577.000000	65.853022  
577.500000	65.720522  
578.000000	65.689583  
578.500000	65.548090  
579.000000	65.297992  
579.500000	65.025727  
580.000000	64.890537  
580.500000	64.798825  
581.000000	64.708446  
581.500000	64.638515  
582.000000	64.522151  
582.500000	64.416378  
583.000000	64.392303  
583.500000	64.417083  
584.000000	64.325098  
584.500000	64.093121  
585.000000	63.937007  
585.500000	63.891318  
586.000000	63.849060  
586.500000	63.707242  
587.000000	63.571083  
587.500000	63.538749  
588.000000	63.465962  
588.500000	63.290068  
589.000000	63.044977  
589.500000	62.952977  
590.000000	62.952378  
590.500000	62.898560  
591.000000	62.715939  
591.500000	62.519113  
592.000000	62.425651  
592.500000	62.282007  
593.000000	62.096068  
593.500000	61.928484  
594.000000	61.976439  
594.500000	62.095431  
595.000000	62.181727  
595.500000	62.165166  
596.000000	62.162204  
596.500000	62.219204  
597.000000	62.331181  
597.500000	62.434378  
598.000000	62.425795  
598.500000	62.414681  
599.000000	62.387212  
599.500000	62.358969  
600.000000	62.183856  
600.500000	62.114613  
601.000000	62.167045  
601.500000	62.349712  
602.000000	62.472090  
602.500000	62.593916  
603.000000	62.702916  
603.500000	62.717015  
604.000000	62.645166  
604.500000	62.626681  
605.000000	62.736219  
605.500000	62.845409  
606.000000	62.863583  
606.500000	62.793234  
607.000000	62.748477  
607.500000	62.914863  
608.000000	63.129477  
608.500000	63.310598  
609.000000	63.383984  
609.500000	63.575583  
610.000000	63.870204  
610.500000	64.136015  
611.000000	64.198325  
611.500000	64.198098  
612.000000	64.290295  
612.500000	64.512712  
613.000000	64.732871  
613.500000	64.691219  
614.000000	64.628825  
614.500000	64.705310  
615.000000	65.030492  
615.500000	65.314386  
616.000000	65.512075  
616.500000	65.590840  
617.000000	65.647454  
617.500000	65.709530  
618.000000	65.818159  
618.500000	65.959840  
619.000000	66.038803  
619.500000	66.164219  
620.000000	66.256803  
620.500000	66.355492  
621.000000	66.389712  
621.500000	66.447803  
622.000000	66.634007  
622.500000	66.908022  
623.000000	67.188787  
623.500000	67.395083  
624.000000	67.605962  
624.500000	67.840068  
625.000000	68.017454  
625.500000	68.062924  
626.000000	68.038416  
626.500000	68.002143  
627.000000	67.986749  
627.500000	68.071060  
628.000000	68.330371  
628.500000	68.604287  
629.000000	68.771098  
629.500000	68.758825  
630.000000	68.818340  
630.500000	69.014401  
631.000000	69.374151  
631.500000	69.675454  
632.000000	69.901818  
632.500000	70.113318  
633.000000	70.349734  
633.500000	70.566992  
634.000000	70.752348  
634.500000	71.026795  
635.000000	71.315446  
635.500000	71.568424  
636.000000	71.765462  
636.500000	72.015083  
637.000000	72.262568  
637.500000	72.568924  
638.000000	72.939454  
638.500000	73.241590  
639.000000	73.333098  
639.500000	73.265181  
640.000000	73.362106  
640.500000	73.697318  
641.000000	74.168325  
641.500000	74.586022  
642.000000	74.919621  
642.500000	75.219083  
643.000000	75.432643  
643.500000	75.644409  
644.000000	75.907818  
644.500000	76.326227  
645.000000	76.689696  
645.500000	76.987227  
646.000000	77.348787  
646.500000	77.842446  
647.000000	78.315083  
647.500000	78.686068  
648.000000	79.162386  
648.500000	79.883719  
649.000000	80.827151  
649.500000	81.892659  
650.000000	83.046000  

