PE FL                   SPECTRUM    ASCII       PEDS        1.60        
  -1
01#215.SP
02/03/21
05:08:45.00
02/03/21
05:11:13.00


460.000000
1









LS55
490.00
5.00
5.00
SCAN
1
20
100
100
0
100
0
0
0
1
7
ON
490 460 
1 0 0
#HDR
-1
-1
#GR
NM

0.00002384185791015625
0.0
240.000000
0.500000
441
8
1009.424795
13.873583
#DATA
240.000000	571.495000  
240.500000	720.001045  
241.000000	855.416393  
241.500000	954.027871  
242.000000	999.555272  
242.500000	1009.424795 
243.000000	1008.438810 
243.500000	996.186553  
244.000000	947.120553  
244.500000	849.731651  
245.000000	726.963712  
245.500000	605.034045  
246.000000	497.646439  
246.500000	395.431939  
247.000000	308.730045  
247.500000	241.717409  
248.000000	195.490280  
248.500000	151.542674  
249.000000	109.018931  
249.500000	71.841469   
250.000000	49.446022   
250.500000	36.242083   
251.000000	29.923393   
251.500000	27.706075   
252.000000	27.145234   
252.500000	27.036659   
253.000000	27.007590   
253.500000	26.904984   
254.000000	26.710606   
254.500000	26.287992   
255.000000	25.630909   
255.500000	24.825696   
256.000000	23.917515   
256.500000	22.989045   
257.000000	22.067333   
257.500000	21.338189   
258.000000	20.861227   
258.500000	20.591628   
259.000000	20.491075   
259.500000	20.550628   
260.000000	20.718878   
260.500000	21.006681   
261.000000	21.396060   
261.500000	21.821227   
262.000000	22.160999   
262.500000	22.502984   
263.000000	22.847560   
263.500000	23.188075   
264.000000	23.289000   
264.500000	23.176477   
265.000000	22.978409   
265.500000	22.952325   
266.000000	22.991909   
266.500000	23.020196   
267.000000	22.951924   
267.500000	22.919507   
268.000000	22.883090   
268.500000	22.817386   
269.000000	22.713068   
269.500000	22.666742   
270.000000	22.634666   
270.500000	22.531431   
271.000000	22.350924   
271.500000	22.211583   
272.000000	22.068780   
272.500000	21.925765   
273.000000	21.819818   
273.500000	21.799257   
274.000000	21.749287   
274.500000	21.663318   
275.000000	21.548946   
275.500000	21.502939   
276.000000	21.444704   
276.500000	21.288151   
277.000000	21.086075   
277.500000	20.915022   
278.000000	20.836545   
278.500000	20.733515   
279.000000	20.548848   
279.500000	20.272181   
280.000000	20.038689   
280.500000	19.825401   
281.000000	19.708916   
281.500000	19.614189   
282.000000	19.440181   
282.500000	19.152909   
283.000000	18.842462   
283.500000	18.634500   
284.000000	18.458166   
284.500000	18.281446   
285.000000	18.143439   
285.500000	18.050219   
286.000000	17.985734   
286.500000	17.917098   
287.000000	17.802098   
287.500000	17.704621   
288.000000	17.674628   
288.500000	17.639681   
289.000000	17.476030   
289.500000	17.279075   
290.000000	17.125416   
290.500000	17.059409   
291.000000	16.908954   
291.500000	16.734916   
292.000000	16.546401   
292.500000	16.349666   
293.000000	16.078287   
293.500000	15.812227   
294.000000	15.522280   
294.500000	15.242310   
295.000000	14.941227   
295.500000	14.631537   
296.000000	14.303825   
296.500000	14.051310   
297.000000	13.908787   
297.500000	13.873583   
298.000000	13.902318   
298.500000	13.991818   
299.000000	14.214977   
299.500000	14.612636   
300.000000	15.191598   
300.500000	15.899848   
301.000000	16.720454   
301.500000	17.622803   
302.000000	18.677969   
302.500000	19.899750   
303.000000	21.252128   
303.500000	22.685893   
304.000000	24.122863   
304.500000	25.558446   
305.000000	27.053962   
305.500000	28.620878   
306.000000	30.236787   
306.500000	31.847719   
307.000000	33.362469   
307.500000	34.697113   
308.000000	35.977924   
308.500000	37.227030   
309.000000	38.410212   
309.500000	39.391507   
310.000000	40.239356   
310.500000	41.023318   
311.000000	41.728348   
311.500000	42.310810   
312.000000	42.840757   
312.500000	43.350265   
313.000000	43.699143   
313.500000	43.889590   
314.000000	44.049969   
314.500000	44.352742   
315.000000	44.753537   
315.500000	45.158734   
316.000000	45.411886   
316.500000	45.581000   
317.000000	45.709113   
317.500000	45.893765   
318.000000	46.044204   
318.500000	46.115856   
319.000000	46.036522   
319.500000	45.965303   
320.000000	46.039439   
320.500000	46.263219   
321.000000	46.537265   
321.500000	46.770204   
322.000000	46.944560   
322.500000	47.029249   
323.000000	47.084598   
323.500000	47.175174   
324.000000	47.261848   
324.500000	47.265939   
325.000000	47.347106   
325.500000	47.504439   
326.000000	47.681068   
326.500000	47.670848   
327.000000	47.624787   
327.500000	47.552106   
328.000000	47.506234   
328.500000	47.496545   
329.000000	47.601833   
329.500000	47.794545   
330.000000	47.977863   
330.500000	48.165893   
331.000000	48.271613   
331.500000	48.403560   
332.000000	48.584416   
332.500000	48.878462   
333.000000	49.111166   
333.500000	49.336439   
334.000000	49.500909   
334.500000	49.673810   
335.000000	49.739462   
335.500000	49.910901   
336.000000	50.075833   
336.500000	50.305598   
337.000000	50.455340   
337.500000	50.686477   
338.000000	50.996469   
338.500000	51.316583   
339.000000	51.488954   
339.500000	51.572613   
340.000000	51.732962   
340.500000	52.063674   
341.000000	52.485893   
341.500000	52.862568   
342.000000	53.143977   
342.500000	53.413416   
343.000000	53.681454   
343.500000	53.994863   
344.000000	54.257409   
344.500000	54.507803   
345.000000	54.805621   
345.500000	55.193242   
346.000000	55.626575   
346.500000	56.107469   
347.000000	56.615159   
347.500000	57.104439   
348.000000	57.555916   
348.500000	57.950000   
349.000000	58.342446   
349.500000	58.745916   
350.000000	59.200939   
350.500000	59.665530   
351.000000	60.087159   
351.500000	60.359151   
352.000000	60.581659   
352.500000	60.746007   
353.000000	61.002333   
353.500000	61.283568   
354.000000	61.629439   
354.500000	61.863863   
355.000000	62.196795   
355.500000	62.628484   
356.000000	63.189227   
356.500000	63.626212   
357.000000	64.058128   
357.500000	64.500568   
358.000000	64.960386   
358.500000	65.342992   
359.000000	65.748393   
359.500000	66.240886   
360.000000	66.714871   
360.500000	67.052196   
361.000000	67.267189   
361.500000	67.440015   
362.000000	67.551681   
362.500000	67.708825   
363.000000	67.826333   
363.500000	68.022750   
364.000000	68.115037   
364.500000	68.226106   
365.000000	68.188424   
365.500000	68.161909   
366.000000	68.009606   
366.500000	67.967886   
367.000000	68.034628   
367.500000	68.266090   
368.000000	68.423734   
368.500000	68.487446   
369.000000	68.383992   
369.500000	68.297643   
370.000000	68.254651   
370.500000	68.345795   
371.000000	68.453818   
371.500000	68.551431   
372.000000	68.643318   
372.500000	68.824000   
373.000000	68.966409   
373.500000	69.015780   
374.000000	68.989689   
374.500000	68.949242   
375.000000	68.921098   
375.500000	68.921590   
376.000000	68.853848   
376.500000	68.781931   
377.000000	68.584469   
377.500000	68.386522   
378.000000	68.319924   
378.500000	68.277151   
379.000000	68.030075   
379.500000	67.548696   
380.000000	67.027560   
380.500000	66.584075   
381.000000	66.120371   
381.500000	65.602780   
382.000000	65.044568   
382.500000	64.531734   
383.000000	63.955166   
383.500000	63.457386   
384.000000	62.936575   
384.500000	62.377962   
385.000000	61.663992   
385.500000	60.922136   
386.000000	60.293356   
386.500000	59.898340   
387.000000	59.577204   
387.500000	59.262969   
388.000000	58.932719   
388.500000	58.704992   
389.000000	58.474053   
389.500000	58.253909   
390.000000	58.010098   
390.500000	57.932530   
391.000000	57.998181   
391.500000	58.024689   
392.000000	57.891598   
392.500000	57.636037   
393.000000	57.515628   
393.500000	57.462795   
394.000000	57.376075   
394.500000	57.201742   
395.000000	57.128795   
395.500000	57.105068   
396.000000	56.940363   
396.500000	56.619931   
397.000000	56.328749   
397.500000	56.174689   
398.000000	56.015318   
398.500000	55.778204   
399.000000	55.556787   
399.500000	55.443053   
400.000000	55.292522   
400.500000	55.079128   
401.000000	54.827174   
401.500000	54.652780   
402.000000	54.599068   
402.500000	54.700295   
403.000000	54.934772   
403.500000	55.279780   
404.000000	55.648159   
404.500000	56.060916   
405.000000	56.592984   
405.500000	57.122075   
406.000000	57.656446   
406.500000	58.128409   
407.000000	58.533045   
407.500000	58.791143   
408.000000	58.873409   
408.500000	58.750348   
409.000000	58.322174   
409.500000	57.500333   
410.000000	56.395909   
410.500000	55.297143   
411.000000	54.202401   
411.500000	53.206333   
412.000000	52.242886   
412.500000	51.435106   
413.000000	50.769825   
413.500000	50.192696   
414.000000	49.621787   
414.500000	49.090636   
415.000000	48.683068   
415.500000	48.426030   
416.000000	48.311462   
416.500000	48.383500   
417.000000	48.577522   
417.500000	48.614409   
418.000000	48.391424   
418.500000	48.242068   
419.000000	48.360287   
419.500000	48.615068   
420.000000	48.749204   
420.500000	48.787734   
421.000000	48.836568   
421.500000	48.914507   
422.000000	49.067280   
422.500000	49.399083   
423.000000	49.827848   
423.500000	50.162893   
424.000000	50.305075   
424.500000	50.485984   
425.000000	50.804090   
425.500000	51.326303   
426.000000	51.872318   
426.500000	52.379681   
427.000000	52.715469   
427.500000	53.021340   
428.000000	53.362916   
428.500000	53.782909   
429.000000	54.067393   
429.500000	54.263212   
430.000000	54.443590   
430.500000	54.743560   
431.000000	55.052833   
431.500000	55.354431   
432.000000	55.696030   
432.500000	56.077060   
433.000000	56.438196   
433.500000	56.745575   
434.000000	57.038409   
434.500000	57.272856   
435.000000	57.520325   
435.500000	57.707083   
436.000000	57.932424   
436.500000	58.074863   
437.000000	58.229530   
437.500000	58.313848   
438.000000	58.503257   
438.500000	58.717772   
439.000000	59.030795   
439.500000	59.247196   
440.000000	59.447068   
440.500000	59.638553   
441.000000	59.904583   
441.500000	60.195719   
442.000000	60.568431   
442.500000	60.935401   
443.000000	61.247181   
443.500000	61.480803   
444.000000	61.809212   
444.500000	62.143340   
445.000000	62.511060   
445.500000	62.844378   
446.000000	63.336371   
446.500000	63.981007   
447.000000	64.660333   
447.500000	65.316818   
448.000000	66.007636   
448.500000	66.790234   
449.000000	67.541893   
449.500000	68.238659   
450.000000	68.862340   
450.500000	69.633712   
451.000000	70.340462   
451.500000	71.029871   
452.000000	71.646553   
452.500000	72.407053   
453.000000	73.236431   
453.500000	74.245022   
454.000000	75.252128   
454.500000	76.234749   
455.000000	77.059159   
455.500000	77.865068   
456.000000	78.759045   
456.500000	79.822878   
457.000000	81.011931   
457.500000	82.422166   
458.000000	83.990757   
458.500000	85.849265   
459.000000	87.892674   
459.500000	90.047507   
460.000000	92.173000   

