PE FL                   SPECTRUM    ASCII       PEDS        1.60        
  -1
01#222.SP
02/03/21
05:47:58.00
02/03/21
05:51:19.00


400.000000
1









LS55
420.00
5.00
5.00
SCAN
1
20
100
100
0
50
0
0
0
1
7
ON
420 400 
1 0 0
#HDR
-1
-1
#GR
NM

0.00002384185791015625
0.0
240.000000
0.500000
321
8
63.716659
7.332424
#DATA
240.000000	8.122999  
240.500000	8.095803  
241.000000	8.039106  
241.500000	7.944833  
242.000000	7.837871  
242.500000	7.753318  
243.000000	7.677712  
243.500000	7.580462  
244.000000	7.508712  
244.500000	7.459477  
245.000000	7.412507  
245.500000	7.339606  
246.000000	7.332424  
246.500000	7.373431  
247.000000	7.450666  
247.500000	7.499606  
248.000000	7.576840  
248.500000	7.659575  
249.000000	7.765113  
249.500000	7.866272  
250.000000	8.021462  
250.500000	8.176030  
251.000000	8.319446  
251.500000	8.440371  
252.000000	8.581484  
252.500000	8.721499  
253.000000	8.825151  
253.500000	8.900492  
254.000000	8.976469  
254.500000	9.043856  
255.000000	9.058106  
255.500000	9.012106  
256.000000	8.950075  
256.500000	8.938969  
257.000000	8.969333  
257.500000	9.015674  
258.000000	9.053287  
258.500000	9.115818  
259.000000	9.191590  
259.500000	9.278507  
260.000000	9.369530  
260.500000	9.517242  
261.000000	9.706416  
261.500000	9.912333  
262.000000	10.086568 
262.500000	10.218378 
263.000000	10.364409 
263.500000	10.532386 
264.000000	10.708181 
264.500000	10.866143 
265.000000	11.023166 
265.500000	11.149825 
266.000000	11.186772 
266.500000	11.183772 
267.000000	11.213106 
267.500000	11.356159 
268.000000	11.522977 
268.500000	11.692863 
269.000000	11.795780 
269.500000	11.863113 
270.000000	11.874848 
270.500000	11.866628 
271.000000	11.866159 
271.500000	11.887462 
272.000000	11.934196 
272.500000	11.964659 
273.000000	11.967984 
273.500000	11.985053 
274.000000	12.070371 
274.500000	12.148030 
275.000000	12.144053 
275.500000	12.056939 
276.000000	12.010295 
276.500000	12.060901 
277.000000	12.126946 
277.500000	12.105378 
278.000000	12.014250 
278.500000	11.899386 
279.000000	11.787689 
279.500000	11.701007 
280.000000	11.679848 
280.500000	11.690772 
281.000000	11.659159 
281.500000	11.537333 
282.000000	11.446833 
282.500000	11.444825 
283.000000	11.496234 
283.500000	11.499750 
284.000000	11.472537 
284.500000	11.416128 
285.000000	11.334810 
285.500000	11.207446 
286.000000	11.084901 
286.500000	10.972356 
287.000000	10.822560 
287.500000	10.627189 
288.000000	10.452151 
288.500000	10.307939 
289.000000	10.162621 
289.500000	9.997696  
290.000000	9.854765  
290.500000	9.754583  
291.000000	9.690803  
291.500000	9.633303  
292.000000	9.583037  
292.500000	9.535628  
293.000000	9.549219  
293.500000	9.663393  
294.000000	9.828257  
294.500000	10.001045 
295.000000	10.199159 
295.500000	10.567689 
296.000000	11.098340 
296.500000	11.743371 
297.000000	12.510257 
297.500000	13.534878 
298.000000	14.866522 
298.500000	16.440333 
299.000000	18.334068 
299.500000	20.607181 
300.000000	23.337780 
300.500000	26.356363 
301.000000	29.502863 
301.500000	32.693545 
302.000000	35.951750 
302.500000	39.383431 
303.000000	42.767022 
303.500000	45.977727 
304.000000	48.826553 
304.500000	51.520159 
305.000000	54.015992 
305.500000	56.249893 
306.000000	58.158901 
306.500000	59.739537 
307.000000	61.069575 
307.500000	62.054121 
308.000000	62.760863 
308.500000	63.180287 
309.000000	63.533719 
309.500000	63.716659 
310.000000	63.676871 
310.500000	63.314606 
311.000000	62.810287 
311.500000	62.290265 
312.000000	61.774363 
312.500000	61.147212 
313.000000	60.426219 
313.500000	59.650007 
314.000000	58.892689 
314.500000	58.173159 
315.000000	57.460772 
315.500000	56.690386 
316.000000	55.902742 
316.500000	55.142765 
317.000000	54.465446 
317.500000	53.770643 
318.000000	53.102803 
318.500000	52.425999 
319.000000	51.841545 
319.500000	51.228840 
320.000000	50.643939 
320.500000	50.046083 
321.000000	49.526946 
321.500000	49.091189 
322.000000	48.770371 
322.500000	48.486181 
323.000000	48.115856 
323.500000	47.677848 
324.000000	47.257992 
324.500000	46.976113 
325.000000	46.738227 
325.500000	46.488166 
326.000000	46.267568 
326.500000	46.133590 
327.000000	46.127325 
327.500000	46.157303 
328.000000	46.205568 
328.500000	46.133204 
329.000000	46.008106 
329.500000	45.824840 
330.000000	45.782946 
330.500000	45.865075 
331.000000	46.011310 
331.500000	46.094681 
332.000000	46.130628 
332.500000	46.220750 
333.000000	46.351431 
333.500000	46.490583 
334.000000	46.557257 
334.500000	46.646886 
335.000000	46.807780 
335.500000	47.033090 
336.000000	47.210348 
336.500000	47.262333 
337.000000	47.283378 
337.500000	47.352689 
338.000000	47.497462 
338.500000	47.622340 
339.000000	47.771734 
339.500000	47.910045 
340.000000	48.001719 
340.500000	48.030878 
341.000000	48.151818 
341.500000	48.396507 
342.000000	48.683893 
342.500000	48.878303 
343.000000	48.986803 
343.500000	49.127113 
344.000000	49.302780 
344.500000	49.536310 
345.000000	49.779060 
345.500000	50.005795 
346.000000	50.170666 
346.500000	50.377325 
347.000000	50.630356 
347.500000	50.861545 
348.000000	51.012325 
348.500000	51.119795 
349.000000	51.297901 
349.500000	51.483818 
350.000000	51.722075 
350.500000	52.009727 
351.000000	52.307409 
351.500000	52.479068 
352.000000	52.581704 
352.500000	52.683015 
353.000000	52.828575 
353.500000	52.974992 
354.000000	53.156878 
354.500000	53.349742 
355.000000	53.531242 
355.500000	53.681030 
356.000000	53.860386 
356.500000	54.019878 
357.000000	54.210886 
357.500000	54.407757 
358.000000	54.638909 
358.500000	54.847325 
359.000000	55.064674 
359.500000	55.274553 
360.000000	55.447143 
360.500000	55.594954 
361.000000	55.742386 
361.500000	55.947439 
362.000000	56.115348 
362.500000	56.299765 
363.000000	56.483659 
363.500000	56.710560 
364.000000	56.871757 
364.500000	56.997424 
365.000000	57.122575 
365.500000	57.339265 
366.000000	57.616863 
366.500000	57.807689 
367.000000	57.939166 
367.500000	58.076901 
368.000000	58.285962 
368.500000	58.461787 
369.000000	58.588886 
369.500000	58.648469 
370.000000	58.720560 
370.500000	58.821825 
371.000000	58.984416 
371.500000	59.134242 
372.000000	59.185439 
372.500000	59.212689 
373.000000	59.272356 
373.500000	59.261833 
374.000000	59.086416 
374.500000	58.833348 
375.000000	58.546863 
375.500000	58.217045 
376.000000	57.861712 
376.500000	57.599545 
377.000000	57.327840 
377.500000	57.009689 
378.000000	56.596356 
378.500000	56.265333 
379.000000	55.937954 
379.500000	55.642265 
380.000000	55.275022 
380.500000	54.943000 
381.000000	54.581022 
381.500000	54.245287 
382.000000	53.917340 
382.500000	53.616795 
383.000000	53.366704 
383.500000	53.125575 
384.000000	52.872727 
384.500000	52.556954 
385.000000	52.240621 
385.500000	51.991106 
386.000000	51.858409 
386.500000	51.752333 
387.000000	51.573227 
387.500000	51.352734 
388.000000	51.094007 
388.500000	50.907719 
389.000000	50.786962 
389.500000	50.747128 
390.000000	50.663659 
390.500000	50.597712 
391.000000	50.503371 
391.500000	50.391856 
392.000000	50.191628 
392.500000	50.011984 
393.000000	49.829310 
393.500000	49.678636 
394.000000	49.501090 
394.500000	49.305234 
395.000000	48.979969 
395.500000	48.591606 
396.000000	48.209954 
396.500000	47.876643 
397.000000	47.482030 
397.500000	47.042484 
398.000000	46.598310 
398.500000	46.213818 
399.000000	45.890007 
399.500000	45.656015 
400.000000	45.476000 

