PE FL                   SPECTRUM    ASCII       PEDS        1.60        
  -1
01#208.SP
02/03/21
04:50:35.00
02/03/21
04:52:54.00


570.000000
1









LS55
310.00
5.00
5.00
SCAN
1
20
100
100
0
100
0
1
0
1
7
ON
470 255 
1 0 0
#HDR
-1
-1
#GR
NM

0.00002384185791015625
0.0
350.000000
0.500000
441
8
409.901159
56.158075
#DATA
350.000000	292.021000 
350.500000	294.016356 
351.000000	296.253689 
351.500000	298.867651 
352.000000	302.017628 
352.500000	305.633916 
353.000000	309.681272 
353.500000	313.843734 
354.000000	318.126931 
354.500000	322.899500 
355.000000	328.227439 
355.500000	334.145780 
356.000000	339.824060 
356.500000	345.164212 
357.000000	350.048068 
357.500000	355.090196 
358.000000	360.022257 
358.500000	364.849719 
359.000000	369.301674 
359.500000	373.388583 
360.000000	377.228462 
360.500000	380.774416 
361.000000	383.975477 
361.500000	386.416621 
362.000000	388.239954 
362.500000	389.866750 
363.000000	391.226537 
363.500000	392.337022 
364.000000	393.061280 
364.500000	393.710333 
365.000000	393.564454 
365.500000	392.925007 
366.000000	391.874121 
366.500000	391.004628 
367.000000	390.163931 
367.500000	389.669469 
368.000000	389.365219 
368.500000	388.880643 
369.000000	388.273659 
369.500000	388.014734 
370.000000	388.093696 
370.500000	387.835492 
371.000000	387.457734 
371.500000	387.749719 
372.000000	388.828083 
372.500000	389.954030 
373.000000	390.491901 
373.500000	391.019348 
374.000000	392.012916 
374.500000	393.387045 
375.000000	394.553340 
375.500000	395.324280 
376.000000	396.285969 
376.500000	397.851901 
377.000000	399.871696 
377.500000	401.611954 
378.000000	402.877901 
378.500000	403.791893 
379.000000	404.839159 
379.500000	405.781780 
380.000000	406.514780 
380.500000	407.188803 
381.000000	407.741628 
381.500000	407.995272 
382.000000	408.338636 
382.500000	409.051401 
383.000000	409.901159 
383.500000	409.794272 
384.000000	408.649128 
384.500000	407.327257 
385.000000	406.884886 
385.500000	406.823303 
386.000000	406.424818 
386.500000	405.140507 
387.000000	403.605545 
387.500000	402.339310 
388.000000	401.390174 
388.500000	400.285704 
389.000000	399.124689 
389.500000	397.621106 
390.000000	396.082143 
390.500000	394.598530 
391.000000	393.310522 
391.500000	392.060984 
392.000000	390.523757 
392.500000	388.932848 
393.000000	387.472553 
393.500000	386.362568 
394.000000	385.151628 
394.500000	384.318901 
395.000000	383.664780 
395.500000	383.286136 
396.000000	382.418590 
396.500000	381.199250 
397.000000	380.031393 
397.500000	379.386037 
398.000000	378.815416 
398.500000	378.338719 
399.000000	377.678568 
399.500000	377.066621 
400.000000	376.254590 
400.500000	375.386310 
401.000000	374.787431 
401.500000	374.794431 
402.000000	374.773348 
402.500000	374.010272 
403.000000	372.660946 
403.500000	371.224143 
404.000000	369.822446 
404.500000	368.133030 
405.000000	366.756719 
405.500000	366.006810 
406.000000	365.553946 
406.500000	364.227189 
407.000000	362.317386 
407.500000	360.211340 
408.000000	358.584250 
408.500000	357.225992 
409.000000	356.083954 
409.500000	354.474484 
410.000000	352.363121 
410.500000	349.931886 
411.000000	347.838931 
411.500000	346.267431 
412.000000	344.926810 
412.500000	343.202431 
413.000000	341.008030 
413.500000	338.592295 
414.000000	336.229212 
414.500000	333.872393 
415.000000	331.409931 
415.500000	329.154696 
416.000000	327.435431 
416.500000	326.019106 
417.000000	324.520962 
417.500000	322.848121 
418.000000	321.393924 
418.500000	320.275431 
419.000000	319.341325 
419.500000	317.959166 
420.000000	316.462469 
420.500000	315.221151 
421.000000	314.421939 
421.500000	313.434045 
422.000000	311.851765 
422.500000	309.776916 
423.000000	307.608166 
423.500000	305.617401 
424.000000	303.854469 
424.500000	302.402053 
425.000000	300.842613 
425.500000	298.855401 
426.000000	296.513863 
426.500000	293.899977 
427.000000	291.293765 
427.500000	288.533651 
428.000000	286.002916 
428.500000	283.483772 
429.000000	281.098522 
429.500000	278.532871 
430.000000	275.987386 
430.500000	273.538113 
431.000000	271.175969 
431.500000	268.758075 
432.000000	266.126295 
432.500000	263.581931 
433.000000	261.106689 
433.500000	258.750863 
434.000000	256.105090 
434.500000	253.284825 
435.000000	250.474515 
435.500000	247.794871 
436.000000	245.222886 
436.500000	242.915704 
437.000000	240.465628 
437.500000	237.612477 
438.000000	234.451356 
438.500000	231.686060 
439.000000	229.494295 
439.500000	227.332575 
440.000000	224.609924 
440.500000	221.768833 
441.000000	219.256030 
441.500000	216.651757 
442.000000	213.823856 
442.500000	211.039787 
443.000000	209.048393 
443.500000	207.425636 
444.000000	205.505439 
444.500000	203.131378 
445.000000	200.948893 
445.500000	199.145454 
446.000000	197.312946 
446.500000	195.270000 
447.000000	192.986007 
447.500000	190.784992 
448.000000	188.620734 
448.500000	186.719977 
449.000000	184.980303 
449.500000	183.177681 
450.000000	180.892015 
450.500000	178.498772 
451.000000	176.409553 
451.500000	174.804303 
452.000000	173.188825 
452.500000	171.455287 
453.000000	169.483166 
453.500000	167.533583 
454.000000	165.456045 
454.500000	163.569280 
455.000000	161.791181 
455.500000	160.229363 
456.000000	158.572613 
456.500000	156.898992 
457.000000	154.997681 
457.500000	153.336613 
458.000000	151.712439 
458.500000	150.265689 
459.000000	148.604204 
459.500000	146.995106 
460.000000	145.207060 
460.500000	143.423886 
461.000000	141.563734 
461.500000	140.036416 
462.000000	138.793734 
462.500000	137.529431 
463.000000	135.930674 
463.500000	134.185098 
464.000000	132.690280 
464.500000	131.375462 
465.000000	130.068477 
465.500000	128.742500 
466.000000	127.540621 
466.500000	126.505772 
467.000000	125.544916 
467.500000	124.550962 
468.000000	123.412871 
468.500000	122.155310 
469.000000	120.821386 
469.500000	119.615878 
470.000000	118.460090 
470.500000	117.511363 
471.000000	116.675992 
471.500000	115.759893 
472.000000	114.624272 
472.500000	113.433734 
473.000000	112.329522 
473.500000	111.152212 
474.000000	109.926636 
474.500000	108.798431 
475.000000	107.997015 
475.500000	107.322363 
476.000000	106.383606 
476.500000	105.235280 
477.000000	104.117628 
477.500000	103.322878 
478.000000	102.502068 
478.500000	101.580939 
479.000000	100.582992 
479.500000	99.862659  
480.000000	99.395136  
480.500000	98.862136  
481.000000	98.309878  
481.500000	97.865553  
482.000000	97.595409  
482.500000	97.232424  
483.000000	96.774901  
483.500000	96.139106  
484.000000	95.452909  
484.500000	94.660575  
485.000000	93.789901  
485.500000	92.876318  
486.000000	91.870090  
486.500000	90.754553  
487.000000	89.617530  
487.500000	88.539265  
488.000000	87.551553  
488.500000	86.687621  
489.000000	85.741053  
489.500000	84.848886  
490.000000	84.024462  
490.500000	83.267136  
491.000000	82.444871  
491.500000	81.644863  
492.000000	80.823439  
492.500000	79.961939  
493.000000	79.081484  
493.500000	78.291500  
494.000000	77.631356  
494.500000	76.994045  
495.000000	76.360128  
495.500000	75.799977  
496.000000	75.275507  
496.500000	74.729886  
497.000000	74.164219  
497.500000	73.712007  
498.000000	73.342537  
498.500000	72.891030  
499.000000	72.230969  
499.500000	71.610280  
500.000000	71.173325  
500.500000	70.859621  
501.000000	70.492090  
501.500000	70.215462  
502.000000	69.984946  
502.500000	69.710787  
503.000000	69.238946  
503.500000	68.796833  
504.000000	68.457530  
504.500000	68.191515  
505.000000	67.855295  
505.500000	67.475871  
506.000000	67.193068  
506.500000	67.025166  
507.000000	66.874393  
507.500000	66.532181  
508.000000	66.074189  
508.500000	65.601886  
509.000000	65.247303  
509.500000	64.957886  
510.000000	64.702689  
510.500000	64.465227  
511.000000	64.215257  
511.500000	63.924257  
512.000000	63.626287  
512.500000	63.327590  
513.000000	62.966825  
513.500000	62.483696  
514.000000	62.058757  
514.500000	61.819280  
515.000000	61.675560  
515.500000	61.516939  
516.000000	61.371416  
516.500000	61.351083  
517.000000	61.337719  
517.500000	61.220969  
518.000000	61.014530  
518.500000	60.780363  
519.000000	60.515242  
519.500000	60.302916  
520.000000	60.179628  
520.500000	60.039772  
521.000000	59.894356  
521.500000	59.780545  
522.000000	59.703128  
522.500000	59.587333  
523.000000	59.380462  
523.500000	59.196439  
524.000000	59.058196  
524.500000	59.097022  
525.000000	59.259651  
525.500000	59.461712  
526.000000	59.598106  
526.500000	59.789780  
527.000000	59.968007  
527.500000	60.065371  
528.000000	59.988318  
528.500000	59.884371  
529.000000	59.750984  
529.500000	59.539795  
530.000000	59.307878  
530.500000	59.085113  
531.000000	58.886424  
531.500000	58.683772  
532.000000	58.572787  
532.500000	58.337234  
533.000000	58.081280  
533.500000	57.731712  
534.000000	57.490689  
534.500000	57.256886  
535.000000	57.096636  
535.500000	56.965227  
536.000000	56.861499  
536.500000	56.732174  
537.000000	56.613484  
537.500000	56.529181  
538.000000	56.414257  
538.500000	56.232348  
539.000000	56.158075  
539.500000	56.272553  
540.000000	56.538128  
540.500000	56.707340  
541.000000	56.730621  
541.500000	56.669939  
542.000000	56.778446  
542.500000	56.991151  
543.000000	57.143015  
543.500000	57.090825  
544.000000	56.897787  
544.500000	56.712106  
545.000000	56.640128  
545.500000	56.660878  
546.000000	56.695689  
546.500000	56.727348  
547.000000	56.669303  
547.500000	56.621871  
548.000000	56.586280  
548.500000	56.640878  
549.000000	56.719628  
549.500000	56.922666  
550.000000	57.272818  
550.500000	57.823219  
551.000000	58.404007  
551.500000	58.995212  
552.000000	59.538098  
552.500000	60.170075  
553.000000	60.805901  
553.500000	61.583568  
554.000000	62.422265  
554.500000	63.480977  
555.000000	64.464477  
555.500000	65.409621  
556.000000	66.252871  
556.500000	67.199454  
557.000000	67.982613  
557.500000	68.591530  
558.000000	69.164606  
558.500000	69.873363  
559.000000	70.519060  
559.500000	70.886939  
560.000000	71.108166  
560.500000	71.166749  
561.000000	71.194742  
561.500000	71.115492  
562.000000	71.133083  
562.500000	71.049166  
563.000000	70.727924  
563.500000	70.160181  
564.000000	69.627719  
564.500000	69.234098  
565.000000	68.919939  
565.500000	68.684553  
566.000000	68.442575  
566.500000	68.265303  
567.000000	68.133878  
567.500000	68.085333  
568.000000	68.161439  
568.500000	68.181583  
569.000000	68.151931  
569.500000	68.122795  
570.000000	68.113000  

