PE FL                   SPECTRUM    ASCII       PEDS        1.60        
  -1
01#241.SP
02/03/22
00:11:12.00
02/03/22
00:12:39.00


350.000000
1









LS55
370.00
5.00
5.00
SCAN
1
20
100
100
0
100
0
0
0
1
7
ON
420 400 
1 0 0
#HDR
-1
-1
#GR
NM

0.00002384185791015625
0.0
220.000000
0.500000
261
8
59.005371
9.813045
#DATA
220.000000	14.402000 
220.500000	14.657378 
221.000000	14.554196 
221.500000	14.251772 
222.000000	14.021159 
222.500000	13.865393 
223.000000	13.620780 
223.500000	13.240272 
224.000000	12.837757 
224.500000	12.506909 
225.000000	12.242719 
225.500000	11.977939 
226.000000	11.699727 
226.500000	11.523962 
227.000000	11.487924 
227.500000	11.527196 
228.000000	11.539666 
228.500000	11.550530 
229.000000	11.563863 
229.500000	11.630371 
230.000000	11.729378 
230.500000	11.809977 
231.000000	11.845022 
231.500000	11.896007 
232.000000	12.024090 
232.500000	12.121303 
233.000000	12.174098 
233.500000	12.164015 
234.000000	12.173598 
234.500000	12.060931 
235.000000	11.893545 
235.500000	11.745189 
236.000000	11.847507 
236.500000	12.000848 
237.000000	11.964939 
237.500000	11.712454 
238.000000	11.430825 
238.500000	11.285606 
239.000000	11.128227 
239.500000	10.986484 
240.000000	10.830863 
240.500000	10.767977 
241.000000	10.696083 
241.500000	10.599507 
242.000000	10.472439 
242.500000	10.383878 
243.000000	10.335219 
243.500000	10.269636 
244.000000	10.218333 
244.500000	10.128621 
245.000000	9.995098  
245.500000	9.823666  
246.000000	9.813045  
246.500000	10.022060 
247.000000	10.221977 
247.500000	10.247522 
248.000000	10.189204 
248.500000	10.213848 
249.000000	10.281500 
249.500000	10.401962 
250.000000	10.563931 
250.500000	10.722060 
251.000000	10.787553 
251.500000	10.847848 
252.000000	11.031833 
252.500000	11.332409 
253.000000	11.589545 
253.500000	11.724083 
254.000000	11.720500 
254.500000	11.647287 
255.000000	11.589280 
255.500000	11.674363 
256.000000	11.856098 
256.500000	12.069378 
257.000000	12.179265 
257.500000	12.179492 
258.000000	12.159878 
258.500000	12.256583 
259.000000	12.407848 
259.500000	12.602371 
260.000000	12.790916 
260.500000	12.995681 
261.000000	13.165257 
261.500000	13.297568 
262.000000	13.455795 
262.500000	13.715553 
263.000000	14.036681 
263.500000	14.291848 
264.000000	14.431977 
264.500000	14.523371 
265.000000	14.665363 
265.500000	14.867159 
266.000000	15.042128 
266.500000	15.220393 
267.000000	15.421234 
267.500000	15.674181 
268.000000	15.822477 
268.500000	15.853250 
269.000000	15.878901 
269.500000	16.109068 
270.000000	16.393053 
270.500000	16.577068 
271.000000	16.633681 
271.500000	16.782303 
272.000000	16.937030 
272.500000	17.041189 
273.000000	16.988530 
273.500000	16.948674 
274.000000	16.913848 
274.500000	16.958613 
275.000000	17.018159 
275.500000	17.076272 
276.000000	17.072090 
276.500000	17.059424 
277.000000	17.073848 
277.500000	17.065007 
278.000000	17.011568 
278.500000	16.877992 
279.000000	16.791454 
279.500000	16.761954 
280.000000	16.724924 
280.500000	16.671340 
281.000000	16.646371 
281.500000	16.687143 
282.000000	16.630878 
282.500000	16.444553 
283.000000	16.242575 
283.500000	16.177689 
284.000000	16.221901 
284.500000	16.211765 
285.000000	16.089878 
285.500000	15.845636 
286.000000	15.654151 
286.500000	15.461780 
287.000000	15.315772 
287.500000	15.146674 
288.000000	14.988689 
288.500000	14.818181 
289.000000	14.578575 
289.500000	14.372280 
290.000000	14.262530 
290.500000	14.301204 
291.000000	14.386295 
291.500000	14.603500 
292.000000	14.935863 
292.500000	15.385280 
293.000000	15.894651 
293.500000	16.518439 
294.000000	17.332250 
294.500000	18.270992 
295.000000	19.275643 
295.500000	20.415825 
296.000000	21.752090 
296.500000	23.262378 
297.000000	24.833356 
297.500000	26.566454 
298.000000	28.544348 
298.500000	30.715712 
299.000000	32.979348 
299.500000	35.339856 
300.000000	38.015272 
300.500000	40.849727 
301.000000	43.629924 
301.500000	46.088772 
302.000000	48.460507 
302.500000	50.811174 
303.000000	52.929159 
303.500000	54.593803 
304.000000	55.913772 
304.500000	57.171606 
305.000000	58.219696 
305.500000	58.835454 
306.000000	58.998833 
306.500000	59.005371 
307.000000	58.984628 
307.500000	58.910098 
308.000000	58.794992 
308.500000	58.585939 
309.000000	58.301530 
309.500000	57.938628 
310.000000	57.589325 
310.500000	57.206999 
311.000000	56.736401 
311.500000	56.113651 
312.000000	55.565098 
312.500000	55.078015 
313.000000	54.634151 
313.500000	54.223287 
314.000000	53.832250 
314.500000	53.359848 
315.000000	52.747492 
315.500000	52.129651 
316.000000	51.595310 
316.500000	51.268333 
317.000000	50.876424 
317.500000	50.433356 
318.000000	49.867219 
318.500000	49.327424 
319.000000	48.856446 
319.500000	48.463242 
320.000000	47.992848 
320.500000	47.480537 
321.000000	46.990409 
321.500000	46.578825 
322.000000	46.276477 
322.500000	45.963946 
323.000000	45.598795 
323.500000	45.202045 
324.000000	44.784977 
324.500000	44.316500 
325.000000	43.773340 
325.500000	43.251037 
326.000000	42.869500 
326.500000	42.576113 
327.000000	42.195946 
327.500000	41.756484 
328.000000	41.266022 
328.500000	40.851272 
329.000000	40.461742 
329.500000	40.118606 
330.000000	39.688666 
330.500000	39.214893 
331.000000	38.816772 
331.500000	38.549272 
332.000000	38.310363 
332.500000	37.971969 
333.000000	37.597113 
333.500000	37.076219 
334.000000	36.492090 
334.500000	35.930696 
335.000000	35.450734 
335.500000	34.893515 
336.000000	34.287083 
336.500000	33.710439 
337.000000	33.193560 
337.500000	32.660818 
338.000000	32.078053 
338.500000	31.507378 
339.000000	30.954303 
339.500000	30.451598 
340.000000	30.034575 
340.500000	29.733098 
341.000000	29.384689 
341.500000	28.999636 
342.000000	28.548166 
342.500000	28.104992 
343.000000	27.683537 
343.500000	27.354113 
344.000000	27.103545 
344.500000	26.904424 
345.000000	26.657909 
345.500000	26.365659 
346.000000	26.076295 
346.500000	25.828681 
347.000000	25.572090 
347.500000	25.326000 
348.000000	25.174022 
348.500000	25.125113 
349.000000	25.121568 
349.500000	25.089469 
350.000000	25.029000 

