PE FL                   SPECTRUM    ASCII       PEDS        1.60        
  -1
01#200.SP
02/03/17
06:24:14.00
02/03/17
06:26:01.00


400.000000
1









LS55
450.00
5.00
5.00
SCAN
1
20
100
100
0
100
0
0
0
1
7
ON
700 365 
1 0 0
#HDR
-1
-1
#GR
NM

0.00002384185791015625
0.0
240.000000
0.500000
321
8
0.173037
-0.000772
#DATA
240.000000	0.006999  
240.500000	0.001833  
241.000000	-0.000772 
241.500000	0.001075  
242.000000	0.004045  
242.500000	0.005212  
243.000000	0.002931  
243.500000	0.000499  
244.000000	-0.000606 
244.500000	-0.000060 
245.000000	-0.000174 
245.500000	0.000545  
246.000000	0.001469  
246.500000	0.001856  
247.000000	0.001583  
247.500000	0.001636  
248.000000	0.002606  
248.500000	0.003128  
249.000000	0.002515  
249.500000	0.000984  
250.000000	0.000151  
250.500000	-0.000242 
251.000000	0.000000  
251.500000	0.000000  
252.000000	0.000000  
252.500000	-0.000121 
253.000000	-0.000227 
253.500000	0.000954  
254.000000	0.002515  
254.500000	0.003181  
255.000000	0.001772  
255.500000	0.000287  
256.000000	-0.000363 
256.500000	0.000000  
257.000000	0.000000  
257.500000	0.000000  
258.000000	-0.000121 
258.500000	-0.000348 
259.000000	0.000545  
259.500000	0.003674  
260.000000	0.006515  
260.500000	0.006272  
261.000000	0.002878  
261.500000	0.000128  
262.000000	-0.000545 
262.500000	0.000000  
263.000000	0.000000  
263.500000	0.000000  
264.000000	0.000000  
264.500000	0.000000  
265.000000	0.000000  
265.500000	0.000000  
266.000000	0.000000  
266.500000	0.000000  
267.000000	0.000000  
267.500000	-0.000121 
268.000000	-0.000106 
268.500000	0.000818  
269.000000	0.001969  
269.500000	0.002303  
270.000000	0.001227  
270.500000	0.000151  
271.000000	-0.000242 
271.500000	0.000000  
272.000000	0.000000  
272.500000	0.000000  
273.000000	-0.000181 
273.500000	-0.000401 
274.000000	0.001136  
274.500000	0.004212  
275.000000	0.007060  
275.500000	0.006424  
276.000000	0.004204  
276.500000	0.002734  
277.000000	0.003840  
277.500000	0.005022  
278.000000	0.004931  
278.500000	0.003159  
279.000000	0.001128  
279.500000	-0.000030 
280.000000	-0.000303 
280.500000	-0.000174 
281.000000	0.000545  
281.500000	0.001530  
282.000000	0.002030  
282.500000	0.001098  
283.000000	0.000037  
283.500000	0.000121  
284.000000	0.001734  
284.500000	0.002848  
285.000000	0.002477  
285.500000	0.001030  
286.000000	-0.000037 
286.500000	-0.000181 
287.000000	-0.000060 
287.500000	-0.000174 
288.000000	0.000363  
288.500000	0.001674  
289.000000	0.002734  
289.500000	0.002954  
290.000000	0.002287  
290.500000	0.001553  
291.000000	0.000704  
291.500000	0.000083  
292.000000	-0.000356 
292.500000	0.000181  
293.000000	0.001393  
293.500000	0.004280  
294.000000	0.006189  
294.500000	0.005689  
295.000000	0.003098  
295.500000	0.001325  
296.000000	0.000583  
296.500000	0.001666  
297.000000	0.004439  
297.500000	0.009916  
298.000000	0.012901  
298.500000	0.010371  
299.000000	0.006424  
299.500000	0.007863  
300.000000	0.013871  
300.500000	0.018719  
301.000000	0.020810  
301.500000	0.021803  
302.000000	0.022212  
302.500000	0.023333  
303.000000	0.024522  
303.500000	0.029424  
304.000000	0.034401  
304.500000	0.037083  
305.000000	0.036810  
305.500000	0.038068  
306.000000	0.041393  
306.500000	0.045462  
307.000000	0.049696  
307.500000	0.050946  
308.000000	0.049750  
308.500000	0.042856  
309.000000	0.037098  
309.500000	0.034401  
310.000000	0.035204  
310.500000	0.035113  
311.000000	0.039863  
311.500000	0.046954  
312.000000	0.049787  
312.500000	0.046803  
313.000000	0.041681  
313.500000	0.045750  
314.000000	0.050636  
314.500000	0.056515  
315.000000	0.052386  
315.500000	0.048886  
316.000000	0.041280  
316.500000	0.037265  
317.000000	0.033333  
317.500000	0.034893  
318.000000	0.038946  
318.500000	0.042462  
319.000000	0.043878  
319.500000	0.048143  
320.000000	0.057954  
320.500000	0.065113  
321.000000	0.063265  
321.500000	0.063174  
322.000000	0.065212  
322.500000	0.067856  
323.000000	0.060886  
323.500000	0.054833  
324.000000	0.052840  
324.500000	0.060378  
325.000000	0.062522  
325.500000	0.057893  
326.000000	0.049227  
326.500000	0.045704  
327.000000	0.048893  
327.500000	0.054121  
328.000000	0.059818  
328.500000	0.061522  
329.000000	0.062143  
329.500000	0.057977  
330.000000	0.055333  
330.500000	0.053227  
331.000000	0.058674  
331.500000	0.067363  
332.000000	0.072121  
332.500000	0.070924  
333.000000	0.075000  
333.500000	0.084575  
334.000000	0.087356  
334.500000	0.082833  
335.000000	0.077128  
335.500000	0.074750  
336.000000	0.073590  
336.500000	0.075401  
337.000000	0.084393  
337.500000	0.093303  
338.000000	0.098825  
338.500000	0.096280  
339.000000	0.093287  
339.500000	0.093174  
340.000000	0.098704  
340.500000	0.101303  
341.000000	0.099553  
341.500000	0.098598  
342.000000	0.101613  
342.500000	0.107424  
343.000000	0.107871  
343.500000	0.103431  
344.000000	0.099333  
344.500000	0.102750  
345.000000	0.106878  
345.500000	0.105507  
346.000000	0.102318  
346.500000	0.110212  
347.000000	0.123803  
347.500000	0.129613  
348.000000	0.125962  
348.500000	0.123833  
349.000000	0.125871  
349.500000	0.123136  
350.000000	0.115462  
350.500000	0.112340  
351.000000	0.119340  
351.500000	0.128310  
352.000000	0.137416  
352.500000	0.146015  
353.000000	0.147007  
353.500000	0.136416  
354.000000	0.121159  
354.500000	0.117401  
355.000000	0.123356  
355.500000	0.131992  
356.000000	0.139833  
356.500000	0.145053  
357.000000	0.150886  
357.500000	0.158431  
358.000000	0.165242  
358.500000	0.161325  
359.000000	0.152053  
359.500000	0.149719  
360.000000	0.161772  
360.500000	0.170416  
361.000000	0.162234  
361.500000	0.150545  
362.000000	0.145636  
362.500000	0.151128  
363.000000	0.152886  
363.500000	0.152295  
364.000000	0.153378  
364.500000	0.159787  
365.000000	0.164007  
365.500000	0.170128  
366.000000	0.173037  
366.500000	0.168833  
367.000000	0.153893  
367.500000	0.138333  
368.000000	0.135916  
368.500000	0.144856  
369.000000	0.155037  
369.500000	0.156954  
370.000000	0.155030  
370.500000	0.148840  
371.000000	0.145750  
371.500000	0.145356  
372.000000	0.148007  
372.500000	0.145916  
373.000000	0.138583  
373.500000	0.140159  
374.000000	0.149128  
374.500000	0.158325  
375.000000	0.149681  
375.500000	0.134272  
376.000000	0.125871  
376.500000	0.132530  
377.000000	0.141825  
377.500000	0.144227  
378.000000	0.143022  
378.500000	0.139984  
379.000000	0.140507  
379.500000	0.137068  
380.000000	0.136333  
380.500000	0.130098  
381.000000	0.123719  
381.500000	0.118424  
382.000000	0.121916  
382.500000	0.124507  
383.000000	0.126454  
383.500000	0.127515  
384.000000	0.130121  
384.500000	0.130848  
385.000000	0.124628  
385.500000	0.117265  
386.000000	0.107780  
386.500000	0.102939  
387.000000	0.102704  
387.500000	0.111916  
388.000000	0.121030  
388.500000	0.130416  
389.000000	0.129886  
389.500000	0.121886  
390.000000	0.105484  
390.500000	0.096659  
391.000000	0.096143  
391.500000	0.099159  
392.000000	0.095954  
392.500000	0.091265  
393.000000	0.087545  
393.500000	0.083742  
394.000000	0.080765  
394.500000	0.079727  
395.000000	0.082522  
395.500000	0.086590  
396.000000	0.090053  
396.500000	0.087666  
397.000000	0.080151  
397.500000	0.069409  
398.000000	0.059545  
398.500000	0.052719  
399.000000	0.053128  
399.500000	0.059977  
400.000000	0.070999  

