PE FL                   SPECTRUM    ASCII       PEDS        1.60        
  -1
01#245.SP
02/03/22
02:43:58.00
02/03/22
02:46:40.00


540.000000
1









LS55
280.00
5.00
5.00
SCAN
1
20
100
100
0
100
0
1
0
1
7
ON
750 275 
1 0 0
#HDR
-1
-1
#GR
NM

0.00002384185791015625
0.0
300.000000
0.500000
481
8
51.591356
1.805280
#DATA
300.000000	13.215000 
300.500000	15.360530 
301.000000	17.231454 
301.500000	18.989946 
302.000000	21.034333 
302.500000	23.293924 
303.000000	25.643083 
303.500000	28.037113 
304.000000	30.594909 
304.500000	33.201795 
305.000000	35.698696 
305.500000	37.939833 
306.000000	39.933249 
306.500000	41.790984 
307.000000	43.626727 
307.500000	45.466803 
308.000000	47.106863 
308.500000	48.395636 
309.000000	49.408628 
309.500000	50.224257 
310.000000	50.835848 
310.500000	51.187265 
311.000000	51.366439 
311.500000	51.495378 
312.000000	51.591356 
312.500000	51.577090 
313.000000	51.434045 
313.500000	51.160742 
314.000000	50.832613 
314.500000	50.542992 
315.000000	50.266045 
315.500000	49.833037 
316.000000	49.301621 
316.500000	48.698916 
317.000000	48.197636 
317.500000	47.701992 
318.000000	47.237969 
318.500000	46.692015 
319.000000	46.098848 
319.500000	45.460939 
320.000000	44.816696 
320.500000	44.143704 
321.000000	43.519704 
321.500000	43.032393 
322.000000	42.607696 
322.500000	42.040696 
323.000000	41.283143 
323.500000	40.452575 
324.000000	39.659515 
324.500000	38.906045 
325.000000	38.298151 
325.500000	37.782166 
326.000000	37.218931 
326.500000	36.573765 
327.000000	35.905568 
327.500000	35.302090 
328.000000	34.621575 
328.500000	33.905053 
329.000000	33.213401 
329.500000	32.597969 
330.000000	32.026924 
330.500000	31.523568 
331.000000	30.981590 
331.500000	30.326803 
332.000000	29.660265 
332.500000	29.100257 
333.000000	28.577977 
333.500000	27.997295 
334.000000	27.358128 
334.500000	26.779787 
335.000000	26.189340 
335.500000	25.697143 
336.000000	25.319704 
336.500000	25.043378 
337.000000	24.632628 
337.500000	24.159780 
338.000000	23.637810 
338.500000	23.133613 
339.000000	22.623166 
339.500000	22.183068 
340.000000	21.781295 
340.500000	21.398166 
341.000000	20.940886 
341.500000	20.442128 
342.000000	19.902250 
342.500000	19.461613 
343.000000	19.136727 
343.500000	18.904833 
344.000000	18.590242 
344.500000	18.210901 
345.000000	17.765984 
345.500000	17.295856 
346.000000	16.904810 
346.500000	16.676689 
347.000000	16.507674 
347.500000	16.230212 
348.000000	15.898234 
348.500000	15.676946 
349.000000	15.506310 
349.500000	15.222515 
350.000000	14.799454 
350.500000	14.429022 
351.000000	14.176803 
351.500000	13.985530 
352.000000	13.816901 
352.500000	13.628409 
353.000000	13.406522 
353.500000	13.077901 
354.000000	12.733946 
354.500000	12.453280 
355.000000	12.333310 
355.500000	12.263704 
356.000000	12.092015 
356.500000	11.796734 
357.000000	11.501371 
357.500000	11.315537 
358.000000	11.191962 
358.500000	11.074651 
359.000000	10.925606 
359.500000	10.795969 
360.000000	10.665530 
360.500000	10.501166 
361.000000	10.323416 
361.500000	10.187386 
362.000000	10.091886 
362.500000	9.947803  
363.000000	9.752946  
363.500000	9.584530  
364.000000	9.532204  
364.500000	9.474636  
365.000000	9.350507  
365.500000	9.216787  
366.000000	9.118598  
366.500000	9.057113  
367.000000	8.955696  
367.500000	8.846924  
368.000000	8.725530  
368.500000	8.612280  
369.000000	8.493992  
369.500000	8.444712  
370.000000	8.416196  
370.500000	8.364666  
371.000000	8.279954  
371.500000	8.175659  
372.000000	8.069068  
372.500000	7.936469  
373.000000	7.817886  
373.500000	7.738553  
374.000000	7.692083  
374.500000	7.619727  
375.000000	7.538030  
375.500000	7.480159  
376.000000	7.497166  
376.500000	7.507833  
377.000000	7.502651  
377.500000	7.477719  
378.000000	7.468151  
378.500000	7.434628  
379.000000	7.378719  
379.500000	7.319810  
380.000000	7.304499  
380.500000	7.322000  
381.000000	7.291946  
381.500000	7.182462  
382.000000	7.075598  
382.500000	7.072265  
383.000000	7.165553  
383.500000	7.247189  
384.000000	7.289522  
384.500000	7.285954  
385.000000	7.245287  
385.500000	7.166863  
386.000000	7.135181  
386.500000	7.188651  
387.000000	7.268227  
387.500000	7.297015  
388.000000	7.267810  
388.500000	7.260022  
389.000000	7.264681  
389.500000	7.260939  
390.000000	7.208303  
390.500000	7.234833  
391.000000	7.313772  
391.500000	7.413590  
392.000000	7.422462  
392.500000	7.404462  
393.000000	7.365568  
393.500000	7.357204  
394.000000	7.357083  
394.500000	7.339833  
395.000000	7.320704  
395.500000	7.312946  
396.000000	7.361999  
396.500000	7.401424  
397.000000	7.398454  
397.500000	7.330568  
398.000000	7.234598  
398.500000	7.169484  
399.000000	7.208431  
399.500000	7.339583  
400.000000	7.446416  
400.500000	7.444507  
401.000000	7.360492  
401.500000	7.292507  
402.000000	7.262696  
402.500000	7.284939  
403.000000	7.354234  
403.500000	7.449409  
404.000000	7.519037  
404.500000	7.516606  
405.000000	7.448393  
405.500000	7.386234  
406.000000	7.383643  
406.500000	7.415075  
407.000000	7.427424  
407.500000	7.413681  
408.000000	7.426803  
408.500000	7.476818  
409.000000	7.527749  
409.500000	7.566113  
410.000000	7.540106  
410.500000	7.496643  
411.000000	7.493818  
411.500000	7.558189  
412.000000	7.606712  
412.500000	7.618651  
413.000000	7.616136  
413.500000	7.614681  
414.000000	7.583704  
414.500000	7.561469  
415.000000	7.568378  
415.500000	7.577818  
416.000000	7.502136  
416.500000	7.432477  
417.000000	7.426651  
417.500000	7.498242  
418.000000	7.542492  
418.500000	7.547401  
419.000000	7.529113  
419.500000	7.501030  
420.000000	7.479613  
420.500000	7.467848  
421.000000	7.522643  
421.500000	7.567022  
422.000000	7.569181  
422.500000	7.487265  
423.000000	7.394325  
423.500000	7.303886  
424.000000	7.280628  
424.500000	7.298446  
425.000000	7.327151  
425.500000	7.284659  
426.000000	7.217015  
426.500000	7.140196  
427.000000	7.119371  
427.500000	7.113583  
428.000000	7.141886  
428.500000	7.150727  
429.000000	7.132833  
429.500000	7.089606  
430.000000	7.063696  
430.500000	7.022795  
431.000000	6.962893  
431.500000	6.917060  
432.000000	6.911878  
432.500000	6.890545  
433.000000	6.824772  
433.500000	6.758143  
434.000000	6.721590  
434.500000	6.708287  
435.000000	6.681681  
435.500000	6.648984  
436.000000	6.596515  
436.500000	6.561477  
437.000000	6.526159  
437.500000	6.517795  
438.000000	6.484856  
438.500000	6.442522  
439.000000	6.387000  
439.500000	6.319689  
440.000000	6.258954  
440.500000	6.235939  
441.000000	6.225939  
441.500000	6.177257  
442.000000	6.086598  
442.500000	6.021613  
443.000000	6.013242  
443.500000	6.002560  
444.000000	5.941537  
444.500000	5.872015  
445.000000	5.816340  
445.500000	5.767734  
446.000000	5.738651  
446.500000	5.724181  
447.000000	5.727643  
447.500000	5.675257  
448.000000	5.591037  
448.500000	5.493007  
449.000000	5.482583  
449.500000	5.494454  
450.000000	5.526659  
450.500000	5.501984  
451.000000	5.440166  
451.500000	5.323689  
452.000000	5.210787  
452.500000	5.145590  
453.000000	5.117712  
453.500000	5.075659  
454.000000	5.001848  
454.500000	4.971007  
455.000000	4.960590  
455.500000	4.936378  
456.000000	4.870659  
456.500000	4.819765  
457.000000	4.812416  
457.500000	4.805598  
458.000000	4.781727  
458.500000	4.740272  
459.000000	4.723643  
459.500000	4.672462  
460.000000	4.589204  
460.500000	4.483174  
461.000000	4.452409  
461.500000	4.440545  
462.000000	4.403924  
462.500000	4.311878  
463.000000	4.223378  
463.500000	4.191090  
464.000000	4.228318  
464.500000	4.273704  
465.000000	4.277242  
465.500000	4.241295  
466.000000	4.183219  
466.500000	4.125424  
467.000000	4.068613  
467.500000	4.015333  
468.000000	3.989818  
468.500000	3.985681  
469.000000	3.971810  
469.500000	3.920628  
470.000000	3.870356  
470.500000	3.840992  
471.000000	3.858022  
471.500000	3.851757  
472.000000	3.804628  
472.500000	3.696431  
473.000000	3.590893  
473.500000	3.523916  
474.000000	3.524734  
474.500000	3.548984  
475.000000	3.581265  
475.500000	3.606810  
476.000000	3.588712  
476.500000	3.515772  
477.000000	3.423295  
477.500000	3.382689  
478.000000	3.376257  
478.500000	3.371083  
479.000000	3.362530  
479.500000	3.349750  
480.000000	3.355454  
480.500000	3.337962  
481.000000	3.328053  
481.500000	3.304818  
482.000000	3.293734  
482.500000	3.258212  
483.000000	3.231984  
483.500000	3.207090  
484.000000	3.170106  
484.500000	3.120333  
485.000000	3.066560  
485.500000	3.044098  
486.000000	3.051795  
486.500000	3.057068  
487.000000	3.031931  
487.500000	2.987287  
488.000000	2.936878  
488.500000	2.884469  
489.000000	2.826787  
489.500000	2.807181  
490.000000	2.812151  
490.500000	2.816856  
491.000000	2.778401  
491.500000	2.757871  
492.000000	2.752946  
492.500000	2.760704  
493.000000	2.738946  
493.500000	2.708439  
494.000000	2.655863  
494.500000	2.605628  
495.000000	2.578000  
495.500000	2.604446  
496.000000	2.619212  
496.500000	2.595227  
497.000000	2.567568  
497.500000	2.578666  
498.000000	2.618068  
498.500000	2.617765  
499.000000	2.572416  
499.500000	2.510681  
500.000000	2.455583  
500.500000	2.409628  
501.000000	2.402462  
501.500000	2.438204  
502.000000	2.480166  
502.500000	2.481863  
503.000000	2.437295  
503.500000	2.381712  
504.000000	2.362037  
504.500000	2.356659  
505.000000	2.347757  
505.500000	2.318765  
506.000000	2.297257  
506.500000	2.314098  
507.000000	2.341060  
507.500000	2.357636  
508.000000	2.354363  
508.500000	2.343651  
509.000000	2.308159  
509.500000	2.244931  
510.000000	2.206757  
510.500000	2.214196  
511.000000	2.250765  
511.500000	2.244280  
512.000000	2.204416  
512.500000	2.160371  
513.000000	2.137825  
513.500000	2.136681  
514.000000	2.139522  
514.500000	2.160318  
515.000000	2.172030  
515.500000	2.191962  
516.000000	2.179704  
516.500000	2.162696  
517.000000	2.127856  
517.500000	2.116250  
518.000000	2.111651  
518.500000	2.120863  
519.000000	2.108386  
519.500000	2.094196  
520.000000	2.080696  
520.500000	2.095151  
521.000000	2.106022  
521.500000	2.117015  
522.000000	2.097992  
522.500000	2.054106  
523.000000	1.989863  
523.500000	1.959863  
524.000000	1.974462  
524.500000	1.999924  
525.000000	2.015545  
525.500000	2.006189  
526.000000	1.984363  
526.500000	1.950212  
527.000000	1.973537  
527.500000	2.013901  
528.000000	2.039969  
528.500000	2.004098  
529.000000	1.983651  
529.500000	1.998030  
530.000000	2.019265  
530.500000	1.995606  
531.000000	1.941090  
531.500000	1.877310  
532.000000	1.818727  
532.500000	1.807393  
533.000000	1.833189  
533.500000	1.883333  
534.000000	1.900856  
534.500000	1.902825  
535.000000	1.892772  
535.500000	1.871030  
536.000000	1.830878  
536.500000	1.805280  
537.000000	1.810189  
537.500000	1.829537  
538.000000	1.836893  
538.500000	1.842674  
539.000000	1.857848  
539.500000	1.880681  
540.000000	1.907999  

