PE FL                   SPECTRUM    ASCII       PEDS        1.60        
  -1
CDSRT#07.SP
02/03/22
00:35:19.00
02/03/22
00:37:30.00


502.000000
1









LS55
365.00
2.50
2.50
SCAN
1
20
100
100
0
25
0
1
0
1
7
ON
530 280 
1 0 0
#HDR
-1
-1
#GR
NM

0.00002384185791015625
0.0
450.000000
0.500000
105
8
14.100000
9.951000
#DATA
450.000000	10.645000 
450.500000	9.951000  
451.000000	10.141000 
451.500000	10.533000 
452.000000	10.301000 
452.500000	10.233000 
453.000000	10.501000 
453.500000	10.713000 
454.000000	10.924000 
454.500000	10.730000 
455.000000	11.004000 
455.500000	10.878000 
456.000000	10.787000 
456.500000	10.800000 
457.000000	11.040000 
457.500000	11.160000 
458.000000	10.841000 
458.500000	11.108000 
459.000000	11.438000 
459.500000	11.395000 
460.000000	11.339000 
460.500000	11.417000 
461.000000	11.555000 
461.500000	11.200000 
462.000000	11.367000 
462.500000	11.475000 
463.000000	11.426000 
463.500000	11.495000 
464.000000	11.830000 
464.500000	11.950000 
465.000000	12.006000 
465.500000	11.549000 
466.000000	11.760000 
466.500000	11.950000 
467.000000	11.712000 
467.500000	11.835000 
468.000000	12.047000 
468.500000	12.203000 
469.000000	12.360000 
469.500000	12.068000 
470.000000	12.044000 
470.500000	12.255000 
471.000000	12.579000 
471.500000	12.753000 
472.000000	12.656000 
472.500000	12.611000 
473.000000	12.609000 
473.500000	12.910000 
474.000000	12.592000 
474.500000	13.034000 
475.000000	12.965000 
475.500000	13.395000 
476.000000	13.041000 
476.500000	12.488000 
477.000000	12.909000 
477.500000	12.972000 
478.000000	13.391000 
478.500000	13.386000 
479.000000	13.322000 
479.500000	13.247000 
480.000000	13.119000 
480.500000	13.114000 
481.000000	13.208000 
481.500000	13.268000 
482.000000	13.704000 
482.500000	13.966000 
483.000000	13.735000 
483.500000	13.807000 
484.000000	13.830000 
484.500000	13.624000 
485.000000	13.742000 
485.500000	14.097000 
486.000000	13.782000 
486.500000	13.903000 
487.000000	14.100000 
487.500000	13.779000 
488.000000	13.670000 
488.500000	13.452000 
489.000000	13.687000 
489.500000	13.414000 
490.000000	13.778000 
490.500000	13.581000 
491.000000	13.586000 
491.500000	13.717000 
492.000000	13.792000 
492.500000	13.743000 
493.000000	13.369000 
493.500000	13.652000 
494.000000	13.776000 
494.500000	13.539000 
495.000000	13.186000 
495.500000	13.208000 
496.000000	13.675000 
496.500000	13.547000 
497.000000	13.201000 
497.500000	13.436000 
498.000000	13.517000 
498.500000	13.321000 
499.000000	13.597000 
499.500000	13.280000 
500.000000	13.101000 
500.500000	13.013000 
501.000000	12.995000 
501.500000	12.967000 
502.000000	13.402000 

