PE FL                   SPECTRUM    ASCII       PEDS        1.60        
  -1
CDSRT#50.SP
02/03/22
03:35:41.00
02/03/22
03:37:52.00


480.000000
1









LS55
520.00
5.00
5.00
SCAN
1
20
100
100
0
100
0
1
0
1
7
ON
331 520 
1 0 0
#HDR
-1
-1
#GR
NM

0.00002384185791015625
0.0
270.000000
0.500000
421
8
10.600000
1.393000
#DATA
270.000000	1.393000  
270.500000	1.462386  
271.000000	1.506348  
271.500000	1.518712  
272.000000	1.521189  
272.500000	1.522106  
273.000000	1.535856  
273.500000	1.543166  
274.000000	1.537727  
274.500000	1.524651  
275.000000	1.532431  
275.500000	1.547462  
276.000000	1.556477  
276.500000	1.553204  
277.000000	1.552643  
277.500000	1.536636  
278.000000	1.530333  
278.500000	1.531090  
279.000000	1.547856  
279.500000	1.548772  
280.000000	1.551121  
280.500000	1.555674  
281.000000	1.567295  
281.500000	1.577469  
282.000000	1.606734  
282.500000	1.626606  
283.000000	1.635068  
283.500000	1.639946  
284.000000	1.674704  
284.500000	1.732734  
285.000000	1.809780  
285.500000	1.926143  
286.000000	2.090553  
286.500000	2.273166  
287.000000	2.399575  
287.500000	2.445856  
288.000000	2.394068  
288.500000	2.259825  
289.000000	2.072871  
289.500000	1.893553  
290.000000	1.779893  
290.500000	1.702272  
291.000000	1.639628  
291.500000	1.578909  
292.000000	1.552060  
292.500000	1.557439  
293.000000	1.572401  
293.500000	1.574371  
294.000000	1.568068  
294.500000	1.574606  
295.000000	1.585212  
295.500000	1.585500  
296.000000	1.571621  
296.500000	1.558696  
297.000000	1.562416  
297.500000	1.564492  
298.000000	1.579174  
298.500000	1.591303  
299.000000	1.608833  
299.500000	1.602598  
300.000000	1.613424  
300.500000	1.622750  
301.000000	1.632477  
301.500000	1.617803  
302.000000	1.605075  
302.500000	1.606553  
303.000000	1.620613  
303.500000	1.630606  
304.000000	1.632007  
304.500000	1.644219  
305.000000	1.654295  
305.500000	1.674356  
306.000000	1.680537  
306.500000	1.687833  
307.000000	1.686128  
307.500000	1.679310  
308.000000	1.646871  
308.500000	1.622257  
309.000000	1.619674  
309.500000	1.640757  
310.000000	1.656590  
310.500000	1.658469  
311.000000	1.662348  
311.500000	1.679568  
312.000000	1.695378  
312.500000	1.718848  
313.000000	1.729371  
313.500000	1.723871  
314.000000	1.692750  
314.500000	1.690765  
315.000000	1.716060  
315.500000	1.743439  
316.000000	1.719000  
316.500000	1.668583  
317.000000	1.633977  
317.500000	1.642568  
318.000000	1.679386  
318.500000	1.721106  
319.000000	1.736878  
319.500000	1.717583  
320.000000	1.688030  
320.500000	1.684500  
321.000000	1.705174  
321.500000	1.720227  
322.000000	1.727090  
322.500000	1.737863  
323.000000	1.748409  
323.500000	1.737060  
324.000000	1.713530  
324.500000	1.715931  
325.000000	1.728227  
325.500000	1.731916  
326.000000	1.715196  
326.500000	1.718954  
327.000000	1.746575  
327.500000	1.773484  
328.000000	1.761636  
328.500000	1.715674  
329.000000	1.685340  
329.500000	1.697598  
330.000000	1.736969  
330.500000	1.750272  
331.000000	1.728348  
331.500000	1.688643  
332.000000	1.669560  
332.500000	1.671401  
333.000000	1.687227  
333.500000	1.678000  
334.000000	1.656712  
334.500000	1.640121  
335.000000	1.656128  
335.500000	1.672204  
336.000000	1.677962  
336.500000	1.678803  
337.000000	1.685712  
337.500000	1.694227  
338.000000	1.679416  
338.500000	1.672484  
339.000000	1.674696  
339.500000	1.696962  
340.000000	1.698696  
340.500000	1.693689  
341.000000	1.676106  
341.500000	1.663856  
342.000000	1.646416  
342.500000	1.636840  
343.000000	1.643151  
343.500000	1.674310  
344.000000	1.710492  
344.500000	1.729863  
345.000000	1.718606  
345.500000	1.694924  
346.000000	1.678356  
346.500000	1.679477  
347.000000	1.687310  
347.500000	1.717022  
348.000000	1.759992  
348.500000	1.782446  
349.000000	1.754053  
349.500000	1.696840  
350.000000	1.661939  
350.500000	1.666878  
351.000000	1.693992  
351.500000	1.726030  
352.000000	1.746810  
352.500000	1.757477  
353.000000	1.758030  
353.500000	1.752787  
354.000000	1.736363  
354.500000	1.714106  
355.000000	1.709840  
355.500000	1.723454  
356.000000	1.748772  
356.500000	1.755174  
357.000000	1.760075  
357.500000	1.735674  
358.000000	1.715181  
358.500000	1.693166  
359.000000	1.700477  
359.500000	1.708590  
360.000000	1.722598  
360.500000	1.728893  
361.000000	1.745386  
361.500000	1.757022  
362.000000	1.756106  
362.500000	1.748234  
363.000000	1.743924  
363.500000	1.756613  
364.000000	1.779545  
364.500000	1.801696  
365.000000	1.800386  
365.500000	1.790606  
366.000000	1.787454  
366.500000	1.802492  
367.000000	1.810500  
367.500000	1.798212  
368.000000	1.789250  
368.500000	1.812916  
369.000000	1.845621  
369.500000	1.855750  
370.000000	1.850030  
370.500000	1.847363  
371.000000	1.847742  
371.500000	1.839530  
372.000000	1.824439  
372.500000	1.829462  
373.000000	1.854416  
373.500000	1.877409  
374.000000	1.876500  
374.500000	1.873007  
375.000000	1.880742  
375.500000	1.900424  
376.000000	1.906409  
376.500000	1.918643  
377.000000	1.955136  
377.500000	1.986780  
378.000000	1.979416  
378.500000	1.939204  
379.000000	1.906613  
379.500000	1.892159  
380.000000	1.910416  
380.500000	1.953303  
381.000000	2.011500  
381.500000	2.029871  
382.000000	2.029757  
382.500000	2.029280  
383.000000	2.040257  
383.500000	2.016219  
384.000000	1.979136  
384.500000	1.948234  
385.000000	1.959969  
385.500000	1.992651  
386.000000	2.032500  
386.500000	2.048363  
387.000000	2.025681  
387.500000	2.000196  
388.000000	2.008575  
388.500000	2.040484  
389.000000	2.044780  
389.500000	2.032272  
390.000000	2.015712  
390.500000	2.001500  
391.000000	1.980181  
391.500000	1.964007  
392.000000	1.969098  
392.500000	1.980492  
393.000000	1.978878  
393.500000	1.957492  
394.000000	1.934939  
394.500000	1.923257  
395.000000	1.939310  
395.500000	1.956818  
396.000000	1.968409  
396.500000	1.967962  
397.000000	1.962833  
397.500000	1.950363  
398.000000	1.946977  
398.500000	1.956386  
399.000000	1.974007  
399.500000	1.993257  
400.000000	1.999204  
400.500000	2.010462  
401.000000	2.018772  
401.500000	2.046075  
402.000000	2.054030  
402.500000	2.044962  
403.000000	2.027666  
403.500000	2.051924  
404.000000	2.090303  
404.500000	2.103106  
405.000000	2.087181  
405.500000	2.085878  
406.000000	2.110075  
406.500000	2.126356  
407.000000	2.132189  
407.500000	2.139234  
408.000000	2.173106  
408.500000	2.203166  
409.000000	2.217825  
409.500000	2.221174  
410.000000	2.255242  
410.500000	2.323431  
411.000000	2.420871  
411.500000	2.519833  
412.000000	2.613295  
412.500000	2.694954  
413.000000	2.785416  
413.500000	2.892166  
414.000000	3.013946  
414.500000	3.097765  
415.000000	3.162219  
415.500000	3.222931  
416.000000	3.307871  
416.500000	3.331810  
417.000000	3.272765  
417.500000	3.160833  
418.000000	3.071310  
418.500000	3.002454  
419.000000	2.911962  
419.500000	2.814621  
420.000000	2.731780  
420.500000	2.660166  
421.000000	2.588931  
421.500000	2.550537  
422.000000	2.575348  
422.500000	2.618598  
423.000000	2.652598  
423.500000	2.658666  
424.000000	2.640136  
424.500000	2.599659  
425.000000	2.590318  
425.500000	2.637310  
426.000000	2.695780  
426.500000	2.715886  
427.000000	2.696159  
427.500000	2.701477  
428.000000	2.713606  
428.500000	2.718537  
429.000000	2.726825  
429.500000	2.782787  
430.000000	2.844250  
430.500000	2.905340  
431.000000	2.929393  
431.500000	2.941863  
432.000000	2.926568  
432.500000	2.920901  
433.000000	2.923083  
433.500000	2.945803  
434.000000	2.960249  
434.500000	2.989075  
435.000000	3.036893  
435.500000	3.066696  
436.000000	3.070446  
436.500000	3.072136  
437.000000	3.106000  
437.500000	3.172795  
438.000000	3.248977  
438.500000	3.288250  
439.000000	3.283931  
439.500000	3.253909  
440.000000	3.235295  
440.500000	3.281477  
441.000000	3.352590  
441.500000	3.399643  
442.000000	3.388522  
442.500000	3.375075  
443.000000	3.409696  
443.500000	3.470121  
444.000000	3.506818  
444.500000	3.523636  
445.000000	3.562287  
445.500000	3.618969  
446.000000	3.674886  
446.500000	3.712704  
447.000000	3.770234  
447.500000	3.838121  
448.000000	3.884106  
448.500000	3.918977  
449.000000	3.955181  
449.500000	3.996280  
450.000000	4.017992  
450.500000	4.055106  
451.000000	4.133583  
451.500000	4.232469  
452.000000	4.299174  
452.500000	4.324606  
453.000000	4.329984  
453.500000	4.352719  
454.000000	4.412090  
454.500000	4.489469  
455.000000	4.572469  
455.500000	4.665901  
456.000000	4.761121  
456.500000	4.841757  
457.000000	4.881787  
457.500000	4.920469  
458.000000	4.965992  
458.500000	5.023015  
459.000000	5.093833  
459.500000	5.190272  
460.000000	5.284712  
460.500000	5.329674  
461.000000	5.350946  
461.500000	5.359530  
462.000000	5.378886  
462.500000	5.383590  
463.000000	5.426674  
463.500000	5.500151  
464.000000	5.606734  
464.500000	5.707446  
465.000000	5.821227  
465.500000	5.929128  
466.000000	6.039090  
466.500000	6.139545  
467.000000	6.252454  
467.500000	6.342454  
468.000000	6.459803  
468.500000	6.558333  
469.000000	6.685325  
469.500000	6.794962  
470.000000	6.964106  
470.500000	7.135151  
471.000000	7.326128  
471.500000	7.481901  
472.000000	7.621371  
472.500000	7.700863  
473.000000	7.753325  
473.500000	7.849848  
474.000000	8.015924  
474.500000	8.241166  
475.000000	8.443999  
475.500000	8.575984  
476.000000	8.689537  
476.500000	8.822083  
477.000000	9.025939  
477.500000	9.210174  
478.000000	9.391469  
478.500000	9.584227  
479.000000	9.894227  
479.500000	10.237848 
480.000000	10.600000 

