PE FL                   SPECTRUM    ASCII       PEDS        1.60        
  -1
CDSRT#37.SP
02/03/22
03:01:04.00
02/03/22
03:02:53.00


400.000000
1









LS55
420.00
5.00
5.00
SCAN
1
20
100
100
0
100
0
0
0
1
7
ON
540 280 
1 0 0
#HDR
-1
-1
#GR
NM

0.00002384185791015625
0.0
230.000000
0.500000
341
8
32.098000
4.318901
#DATA
230.000000	5.190000  
230.500000	5.235249  
231.000000	5.305636  
231.500000	5.408128  
232.000000	5.532795  
232.500000	5.693946  
233.000000	5.889325  
233.500000	6.097499  
234.000000	6.322356  
234.500000	6.607409  
235.000000	6.965204  
235.500000	7.379666  
236.000000	7.661068  
236.500000	7.788848  
237.000000	7.726575  
237.500000	7.506787  
238.000000	7.013537  
238.500000	6.382886  
239.000000	5.796121  
239.500000	5.448371  
240.000000	5.249893  
240.500000	5.130643  
241.000000	5.071280  
241.500000	5.025704  
242.000000	4.949075  
242.500000	4.839484  
243.000000	4.731666  
243.500000	4.667469  
244.000000	4.600121  
244.500000	4.512886  
245.000000	4.398886  
245.500000	4.319106  
246.000000	4.318901  
246.500000	4.384151  
247.000000	4.461446  
247.500000	4.515727  
248.000000	4.569803  
248.500000	4.636000  
249.000000	4.751242  
249.500000	4.894303  
250.000000	5.034560  
250.500000	5.139219  
251.000000	5.208507  
251.500000	5.277886  
252.000000	5.372522  
252.500000	5.454984  
253.000000	5.529515  
253.500000	5.532159  
254.000000	5.532803  
254.500000	5.555416  
255.000000	5.618454  
255.500000	5.630712  
256.000000	5.565166  
256.500000	5.463174  
257.000000	5.389992  
257.500000	5.351151  
258.000000	5.317045  
258.500000	5.345568  
259.000000	5.411499  
259.500000	5.462871  
260.000000	5.467166  
260.500000	5.474484  
261.000000	5.544363  
261.500000	5.699393  
262.000000	5.897280  
262.500000	6.110909  
263.000000	6.236045  
263.500000	6.286765  
264.000000	6.291772  
264.500000	6.344787  
265.000000	6.388446  
265.500000	6.436083  
266.000000	6.451348  
266.500000	6.477431  
267.000000	6.487924  
267.500000	6.500227  
268.000000	6.478636  
268.500000	6.484893  
269.000000	6.538530  
269.500000	6.669537  
270.000000	6.753272  
270.500000	6.768696  
271.000000	6.721121  
271.500000	6.711560  
272.000000	6.694734  
272.500000	6.708681  
273.000000	6.764719  
273.500000	6.884659  
274.000000	6.964696  
274.500000	6.953901  
275.000000	6.873522  
275.500000	6.839696  
276.000000	6.817083  
276.500000	6.798318  
277.000000	6.761719  
277.500000	6.769446  
278.000000	6.807515  
278.500000	6.795015  
279.000000	6.715378  
279.500000	6.614378  
280.000000	6.587734  
280.500000	6.557962  
281.000000	6.559340  
281.500000	6.535772  
282.000000	6.530924  
282.500000	6.488840  
283.000000	6.434780  
283.500000	6.379818  
284.000000	6.323606  
284.500000	6.250621  
285.000000	6.164386  
285.500000	6.091000  
286.000000	6.044037  
286.500000	6.023606  
287.000000	6.032333  
287.500000	5.996340  
288.000000	5.959242  
288.500000	5.907249  
289.000000	5.916939  
289.500000	5.927356  
290.000000	5.960492  
290.500000	5.959257  
291.000000	5.942886  
291.500000	5.890045  
292.000000	5.842446  
292.500000	5.837977  
293.000000	5.854803  
293.500000	5.902363  
294.000000	5.946916  
294.500000	6.061515  
295.000000	6.207795  
295.500000	6.400227  
296.000000	6.564128  
296.500000	6.750431  
297.000000	6.987151  
297.500000	7.335060  
298.000000	7.794060  
298.500000	8.349606  
299.000000	9.003446  
299.500000	9.780537  
300.000000	10.719348 
300.500000	11.823280 
301.000000	13.041371 
301.500000	14.300734 
302.000000	15.601424 
302.500000	17.041545 
303.000000	18.567045 
303.500000	20.106333 
304.000000	21.587878 
304.500000	22.986204 
305.000000	24.253272 
305.500000	25.360287 
306.000000	26.324916 
306.500000	27.199750 
307.000000	27.974007 
307.500000	28.587250 
308.000000	29.043045 
308.500000	29.337393 
309.000000	29.555128 
309.500000	29.629159 
310.000000	29.509878 
310.500000	29.197750 
311.000000	28.862060 
311.500000	28.469568 
312.000000	28.011234 
312.500000	27.447310 
313.000000	26.899121 
313.500000	26.389469 
314.000000	25.906431 
314.500000	25.379272 
315.000000	24.841992 
315.500000	24.310719 
316.000000	23.775113 
316.500000	23.152287 
317.000000	22.465227 
317.500000	21.862916 
318.000000	21.434500 
318.500000	21.054553 
319.000000	20.620522 
319.500000	20.147090 
320.000000	19.709015 
320.500000	19.306250 
321.000000	18.924803 
321.500000	18.588840 
322.000000	18.372742 
322.500000	18.222212 
323.000000	18.053757 
323.500000	17.825681 
324.000000	17.602075 
324.500000	17.417181 
325.000000	17.312515 
325.500000	17.191909 
326.000000	17.084446 
326.500000	16.994954 
327.000000	16.951219 
327.500000	16.923113 
328.000000	16.906477 
328.500000	16.905356 
329.000000	16.949666 
329.500000	17.027424 
330.000000	17.108477 
330.500000	17.180242 
331.000000	17.216113 
331.500000	17.213916 
332.000000	17.250909 
332.500000	17.372128 
333.000000	17.595022 
333.500000	17.837810 
334.000000	18.046666 
334.500000	18.144727 
335.000000	18.126477 
335.500000	18.112674 
336.000000	18.218318 
336.500000	18.437454 
337.000000	18.593931 
337.500000	18.712575 
338.000000	18.877242 
338.500000	19.158204 
339.000000	19.374015 
339.500000	19.522446 
340.000000	19.581234 
340.500000	19.681621 
341.000000	19.828992 
341.500000	20.070825 
342.000000	20.320946 
342.500000	20.499954 
343.000000	20.621977 
343.500000	20.727000 
344.000000	20.887856 
344.500000	21.047742 
345.000000	21.258787 
345.500000	21.458469 
346.000000	21.713333 
346.500000	21.968704 
347.000000	22.272674 
347.500000	22.566477 
348.000000	22.794689 
348.500000	22.909363 
349.000000	22.966060 
349.500000	23.066446 
350.000000	23.232515 
350.500000	23.432901 
351.000000	23.651522 
351.500000	23.907477 
352.000000	24.146393 
352.500000	24.305651 
353.000000	24.404477 
353.500000	24.499553 
354.000000	24.603651 
354.500000	24.726196 
355.000000	24.815613 
355.500000	24.967643 
356.000000	25.125371 
356.500000	25.375090 
357.000000	25.589174 
357.500000	25.843659 
358.000000	25.993712 
358.500000	26.117621 
359.000000	26.203734 
359.500000	26.383825 
360.000000	26.560378 
360.500000	26.715174 
361.000000	26.777356 
361.500000	26.923075 
362.000000	27.085393 
362.500000	27.280734 
363.000000	27.315977 
363.500000	27.367727 
364.000000	27.340196 
364.500000	27.405530 
365.000000	27.448810 
365.500000	27.591424 
366.000000	27.711954 
366.500000	27.843590 
367.000000	27.902174 
367.500000	27.949462 
368.000000	27.968863 
368.500000	27.949303 
369.000000	27.862901 
369.500000	27.790022 
370.000000	27.745590 
370.500000	27.723515 
371.000000	27.693242 
371.500000	27.697962 
372.000000	27.689560 
372.500000	27.635742 
373.000000	27.533621 
373.500000	27.482462 
374.000000	27.491954 
374.500000	27.419196 
375.000000	27.285863 
375.500000	27.126871 
376.000000	27.018121 
376.500000	26.867999 
377.000000	26.707969 
377.500000	26.528227 
378.000000	26.395742 
378.500000	26.241780 
379.000000	26.000477 
379.500000	25.750446 
380.000000	25.577037 
380.500000	25.506151 
381.000000	25.486492 
381.500000	25.437871 
382.000000	25.347469 
382.500000	25.266462 
383.000000	25.204856 
383.500000	25.127553 
384.000000	25.077621 
384.500000	25.128795 
385.000000	25.272992 
385.500000	25.409295 
386.000000	25.422795 
386.500000	25.368030 
387.000000	25.345984 
387.500000	25.438098 
388.000000	25.654015 
388.500000	25.907492 
389.000000	26.117295 
389.500000	26.340363 
390.000000	26.694015 
390.500000	27.090674 
391.000000	27.365416 
391.500000	27.485810 
392.000000	27.660742 
392.500000	27.964863 
393.000000	28.364363 
393.500000	28.662416 
394.000000	28.895159 
394.500000	29.054613 
395.000000	29.250848 
395.500000	29.417181 
396.000000	29.617833 
396.500000	29.803409 
397.000000	30.052371 
397.500000	30.362045 
398.000000	30.752757 
398.500000	31.173984 
399.000000	31.561113 
399.500000	31.852999 
400.000000	32.098000 

