PE FL                   SPECTRUM    ASCII       PEDS        1.60        
  -1
CDSRT#33.SP
02/03/22
02:50:41.00
02/03/22
02:52:57.00


600.000000
1









LS55
365.00
5.00
5.00
SCAN
1
20
100
100
0
100
0
1
0
1
7
ON
600 365 
1 0 0
#HDR
-1
-1
#GR
NM

0.00002384185791015625
0.0
390.000000
0.500000
421
8
16.606636
3.983916
#DATA
390.000000	6.528000  
390.500000	6.756424  
391.000000	6.899674  
391.500000	6.983401  
392.000000	7.036446  
392.500000	7.115530  
393.000000	7.196984  
393.500000	7.323242  
394.000000	7.467560  
394.500000	7.613803  
395.000000	7.747037  
395.500000	7.855386  
396.000000	7.975462  
396.500000	8.102621  
397.000000	8.251727  
397.500000	8.386204  
398.000000	8.513568  
398.500000	8.625318  
399.000000	8.746234  
399.500000	8.922325  
400.000000	9.138113  
400.500000	9.355454  
401.000000	9.526765  
401.500000	9.701454  
402.000000	9.868863  
402.500000	10.061166 
403.000000	10.219227 
403.500000	10.384166 
404.000000	10.545234 
404.500000	10.711015 
405.000000	10.864863 
405.500000	11.034833 
406.000000	11.248250 
406.500000	11.478189 
407.000000	11.678681 
407.500000	11.842371 
408.000000	12.030212 
408.500000	12.208212 
409.000000	12.374568 
409.500000	12.524575 
410.000000	12.685643 
410.500000	12.814060 
411.000000	12.956871 
411.500000	13.107704 
412.000000	13.296022 
412.500000	13.452439 
413.000000	13.594613 
413.500000	13.721030 
414.000000	13.822424 
414.500000	13.920939 
415.000000	14.057462 
415.500000	14.218371 
416.000000	14.345340 
416.500000	14.418446 
417.000000	14.470560 
417.500000	14.559765 
418.000000	14.693045 
418.500000	14.831310 
419.000000	14.938977 
419.500000	15.005909 
420.000000	15.039636 
420.500000	15.096674 
421.000000	15.175757 
421.500000	15.294439 
422.000000	15.409727 
422.500000	15.511818 
423.000000	15.598924 
423.500000	15.687696 
424.000000	15.785409 
424.500000	15.870424 
425.000000	15.926613 
425.500000	15.939901 
426.000000	15.948886 
426.500000	16.002166 
427.000000	16.074053 
427.500000	16.154318 
428.000000	16.226962 
428.500000	16.276212 
429.000000	16.256477 
429.500000	16.254454 
430.000000	16.322015 
430.500000	16.466856 
431.000000	16.524159 
431.500000	16.474280 
432.000000	16.448272 
432.500000	16.521696 
433.000000	16.606636 
433.500000	16.579356 
434.000000	16.530643 
434.500000	16.482045 
435.000000	16.491022 
435.500000	16.405772 
436.000000	16.358318 
436.500000	16.369272 
437.000000	16.518431 
437.500000	16.603628 
438.000000	16.548871 
438.500000	16.329712 
439.000000	16.132719 
439.500000	16.070651 
440.000000	16.066757 
440.500000	16.077598 
441.000000	16.043772 
441.500000	16.017378 
442.000000	16.000083 
442.500000	15.992954 
443.000000	15.941848 
443.500000	15.851530 
444.000000	15.758151 
444.500000	15.669613 
445.000000	15.585446 
445.500000	15.467833 
446.000000	15.398378 
446.500000	15.376545 
447.000000	15.364492 
447.500000	15.312916 
448.000000	15.180992 
448.500000	15.017583 
449.000000	14.879219 
449.500000	14.788863 
450.000000	14.704234 
450.500000	14.638174 
451.000000	14.594181 
451.500000	14.513765 
452.000000	14.359621 
452.500000	14.180250 
453.000000	14.083772 
453.500000	14.028318 
454.000000	13.955659 
454.500000	13.839340 
455.000000	13.731340 
455.500000	13.658439 
456.000000	13.562931 
456.500000	13.453181 
457.000000	13.378856 
457.500000	13.380772 
458.000000	13.378303 
458.500000	13.296393 
459.000000	13.151931 
459.500000	13.020083 
460.000000	12.895143 
460.500000	12.753348 
461.000000	12.638734 
461.500000	12.589469 
462.000000	12.542492 
462.500000	12.458409 
463.000000	12.331893 
463.500000	12.246772 
464.000000	12.173659 
464.500000	12.077992 
465.000000	11.978340 
465.500000	11.892393 
466.000000	11.797606 
466.500000	11.665560 
467.000000	11.549234 
467.500000	11.470500 
468.000000	11.443151 
468.500000	11.366621 
469.000000	11.269386 
469.500000	11.160090 
470.000000	11.094356 
470.500000	11.040871 
471.000000	11.026704 
471.500000	10.987007 
472.000000	10.916553 
472.500000	10.790386 
473.000000	10.659181 
473.500000	10.565045 
474.000000	10.506484 
474.500000	10.476242 
475.000000	10.464143 
475.500000	10.429242 
476.000000	10.308454 
476.500000	10.149257 
477.000000	10.028295 
477.500000	10.001000 
478.000000	10.026962 
478.500000	10.007833 
479.000000	9.945204  
479.500000	9.860863  
480.000000	9.783424  
480.500000	9.682287  
481.000000	9.577234  
481.500000	9.527787  
482.000000	9.539348  
482.500000	9.521765  
483.000000	9.448113  
483.500000	9.381234  
484.000000	9.304219  
484.500000	9.185916  
485.000000	9.080553  
485.500000	9.054113  
486.000000	9.057856  
486.500000	9.017159  
487.000000	8.967212  
487.500000	8.961772  
488.000000	8.909924  
488.500000	8.811583  
489.000000	8.729196  
489.500000	8.681583  
490.000000	8.615340  
490.500000	8.513333  
491.000000	8.430598  
491.500000	8.374977  
492.000000	8.355681  
492.500000	8.344371  
493.000000	8.357159  
493.500000	8.320303  
494.000000	8.227492  
494.500000	8.096727  
495.000000	7.991409  
495.500000	7.942840  
496.000000	7.956992  
496.500000	7.963340  
497.000000	7.929939  
497.500000	7.834878  
498.000000	7.760416  
498.500000	7.745734  
499.000000	7.779878  
499.500000	7.787378  
500.000000	7.717318  
500.500000	7.606893  
501.000000	7.537234  
501.500000	7.587856  
502.000000	7.703401  
502.500000	7.805537  
503.000000	7.793280  
503.500000	7.722249  
504.000000	7.641393  
504.500000	7.580242  
505.000000	7.540015  
505.500000	7.517371  
506.000000	7.537363  
506.500000	7.592492  
507.000000	7.658492  
507.500000	7.673757  
508.000000	7.667318  
508.500000	7.659545  
509.000000	7.681015  
509.500000	7.663068  
510.000000	7.587424  
510.500000	7.527651  
511.000000	7.541598  
511.500000	7.587954  
512.000000	7.605348  
512.500000	7.581098  
513.000000	7.569833  
513.500000	7.560333  
514.000000	7.543575  
514.500000	7.503113  
515.000000	7.478143  
515.500000	7.456984  
516.000000	7.456462  
516.500000	7.429931  
517.000000	7.402643  
517.500000	7.365409  
518.000000	7.340378  
518.500000	7.329530  
519.000000	7.326098  
519.500000	7.325409  
520.000000	7.333280  
520.500000	7.350696  
521.000000	7.325090  
521.500000	7.250719  
522.000000	7.159946  
522.500000	7.092636  
523.000000	7.035583  
523.500000	6.966000  
524.000000	6.930022  
524.500000	6.948234  
525.000000	6.983416  
525.500000	6.967901  
526.000000	6.935333  
526.500000	6.939969  
527.000000	6.957431  
527.500000	6.915053  
528.000000	6.811500  
528.500000	6.739454  
529.000000	6.727916  
529.500000	6.730749  
530.000000	6.684469  
530.500000	6.620000  
531.000000	6.577030  
531.500000	6.590257  
532.000000	6.627992  
532.500000	6.640083  
533.000000	6.579348  
533.500000	6.492780  
534.000000	6.432666  
534.500000	6.422007  
535.000000	6.434090  
535.500000	6.436833  
536.000000	6.416909  
536.500000	6.373969  
537.000000	6.327651  
537.500000	6.305075  
538.000000	6.306522  
538.500000	6.280977  
539.000000	6.214439  
539.500000	6.172924  
540.000000	6.189431  
540.500000	6.214848  
541.000000	6.161757  
541.500000	6.094848  
542.000000	6.054060  
542.500000	6.051719  
543.000000	6.009795  
543.500000	5.991242  
544.000000	5.997227  
544.500000	6.012515  
545.000000	5.983848  
545.500000	5.940810  
546.000000	5.912212  
546.500000	5.897530  
547.000000	5.888666  
547.500000	5.880742  
548.000000	5.891136  
548.500000	5.908287  
549.000000	5.893325  
549.500000	5.855318  
550.000000	5.790780  
550.500000	5.750530  
551.000000	5.713227  
551.500000	5.720121  
552.000000	5.716704  
552.500000	5.714590  
553.000000	5.674515  
553.500000	5.646053  
554.000000	5.636696  
554.500000	5.634727  
555.000000	5.610833  
555.500000	5.578416  
556.000000	5.550583  
556.500000	5.511712  
557.000000	5.488333  
557.500000	5.480090  
558.000000	5.487962  
558.500000	5.477946  
559.000000	5.446227  
559.500000	5.417803  
560.000000	5.433780  
560.500000	5.460795  
561.000000	5.448575  
561.500000	5.379780  
562.000000	5.308106  
562.500000	5.264287  
563.000000	5.230946  
563.500000	5.195068  
564.000000	5.198954  
564.500000	5.229219  
565.000000	5.248818  
565.500000	5.225962  
566.000000	5.202196  
566.500000	5.179931  
567.000000	5.171833  
567.500000	5.142568  
568.000000	5.113265  
568.500000	5.097916  
569.000000	5.099833  
569.500000	5.071227  
570.000000	4.994151  
570.500000	4.930143  
571.000000	4.924856  
571.500000	4.948310  
572.000000	4.945424  
572.500000	4.922469  
573.000000	4.930136  
573.500000	4.924590  
574.000000	4.898295  
574.500000	4.841340  
575.000000	4.832734  
575.500000	4.832030  
576.000000	4.800431  
576.500000	4.735583  
577.000000	4.713871  
577.500000	4.745984  
578.000000	4.762204  
578.500000	4.739189  
579.000000	4.698636  
579.500000	4.696159  
580.000000	4.689371  
580.500000	4.650583  
581.000000	4.588992  
581.500000	4.544159  
582.000000	4.514681  
582.500000	4.516886  
583.000000	4.519030  
583.500000	4.523795  
584.000000	4.499242  
584.500000	4.492219  
585.000000	4.483954  
585.500000	4.484946  
586.000000	4.456174  
586.500000	4.426068  
587.000000	4.371916  
587.500000	4.332181  
588.000000	4.320992  
588.500000	4.338734  
589.000000	4.359477  
589.500000	4.350143  
590.000000	4.301083  
590.500000	4.225992  
591.000000	4.189969  
591.500000	4.222378  
592.000000	4.278492  
592.500000	4.295909  
593.000000	4.282886  
593.500000	4.271295  
594.000000	4.223750  
594.500000	4.153924  
595.000000	4.103409  
595.500000	4.127643  
596.000000	4.174871  
596.500000	4.177196  
597.000000	4.122037  
597.500000	4.033689  
598.000000	3.983916  
598.500000	3.985757  
599.000000	4.037121  
599.500000	4.051863  
600.000000	4.013000  

