PE FL                   SPECTRUM    ASCII       PEDS        1.60        
  -1
CDSRT#28.SP
02/03/22
01:37:23.00
02/03/22
01:38:29.00


290.000000
1









LS55
310.00
5.00
5.00
SCAN
1
20
100
100
0
100
0
0
0
1
7
ON
490 450 
1 0 0
#HDR
-1
-1
#GR
NM

0.00002384185791015625
0.0
200.000000
0.500000
181
8
133.862000
19.613000
#DATA
200.000000	19.613000  
200.500000	20.178984  
201.000000	20.629886  
201.500000	21.187484  
202.000000	21.785159  
202.500000	22.457454  
203.000000	23.004416  
203.500000	23.803780  
204.000000	24.527795  
204.500000	25.119053  
205.000000	25.624742  
205.500000	26.298886  
206.000000	27.127409  
206.500000	27.950810  
207.000000	28.637590  
207.500000	29.327371  
208.000000	30.334401  
208.500000	31.337090  
209.000000	32.142810  
209.500000	32.655810  
210.000000	33.057886  
210.500000	33.248643  
211.000000	33.558757  
211.500000	34.236000  
212.000000	35.227348  
212.500000	35.832628  
213.000000	36.090174  
213.500000	36.449522  
214.000000	36.834901  
214.500000	37.096446  
215.000000	37.390878  
215.500000	37.851098  
216.000000	38.355500  
216.500000	38.515159  
217.000000	38.554439  
217.500000	38.771507  
218.000000	39.084568  
218.500000	39.259909  
219.000000	39.618075  
219.500000	40.369916  
220.000000	40.931727  
220.500000	40.924363  
221.000000	40.257674  
221.500000	39.945500  
222.000000	40.216477  
222.500000	40.748659  
223.000000	40.917613  
223.500000	40.732462  
224.000000	40.583143  
224.500000	40.638856  
225.000000	40.675030  
225.500000	40.476083  
226.000000	40.351174  
226.500000	40.433946  
227.000000	40.575833  
227.500000	40.649962  
228.000000	40.792946  
228.500000	41.046166  
229.000000	41.283181  
229.500000	41.503901  
230.000000	41.796060  
230.500000	42.273840  
231.000000	42.763439  
231.500000	43.245363  
232.000000	43.442984  
232.500000	43.524371  
233.000000	43.447727  
233.500000	43.560022  
234.000000	43.873909  
234.500000	44.612825  
235.000000	45.564325  
235.500000	46.500628  
236.000000	47.188356  
236.500000	47.880727  
237.000000	48.793515  
237.500000	49.964515  
238.000000	51.141121  
238.500000	52.395022  
239.000000	53.723492  
239.500000	55.207356  
240.000000	56.531568  
240.500000	57.694393  
241.000000	58.621999  
241.500000	59.657053  
242.000000	60.898696  
242.500000	62.566977  
243.000000	64.221833  
243.500000	65.706840  
244.000000	66.997174  
244.500000	68.401325  
245.000000	69.882424  
245.500000	71.240060  
246.000000	72.352037  
246.500000	73.309295  
247.000000	74.471280  
247.500000	75.744348  
248.000000	77.107939  
248.500000	78.312984  
249.000000	79.652446  
249.500000	81.025568  
250.000000	82.193303  
250.500000	83.003515  
251.000000	83.594128  
251.500000	84.247515  
252.000000	84.935909  
252.500000	85.830583  
253.000000	86.709212  
253.500000	87.503704  
254.000000	87.899340  
254.500000	88.224181  
255.000000	88.564628  
255.500000	88.999674  
256.000000	89.254196  
256.500000	89.396871  
257.000000	89.586568  
257.500000	90.035954  
258.000000	90.747507  
258.500000	91.663113  
259.000000	92.489810  
259.500000	93.332840  
260.000000	94.115492  
260.500000	95.040772  
261.000000	95.732530  
261.500000	96.165818  
262.000000	96.235090  
262.500000	96.427871  
263.000000	96.664651  
263.500000	97.258174  
264.000000	97.986484  
264.500000	98.794939  
265.000000	99.548007  
265.500000	100.327840 
266.000000	100.954015 
266.500000	101.300007 
267.000000	101.515128 
267.500000	101.990856 
268.000000	102.755810 
268.500000	103.128469 
269.000000	103.090780 
269.500000	103.058287 
270.000000	103.437310 
270.500000	103.907530 
271.000000	104.073325 
271.500000	104.001431 
272.000000	104.062651 
272.500000	104.205484 
273.000000	104.243159 
273.500000	104.215386 
274.000000	104.180924 
274.500000	103.909696 
275.000000	103.489863 
275.500000	103.184053 
276.000000	103.262863 
276.500000	103.338007 
277.000000	103.179386 
277.500000	102.953719 
278.000000	102.824886 
278.500000	102.816318 
279.000000	102.955757 
279.500000	102.994969 
280.000000	102.835022 
280.500000	102.436151 
281.000000	102.111121 
281.500000	101.895310 
282.000000	101.806053 
282.500000	101.615022 
283.000000	101.437878 
283.500000	101.434871 
284.000000	101.789848 
284.500000	102.479757 
285.000000	103.300227 
285.500000	104.211772 
286.000000	105.288803 
286.500000	106.621636 
287.000000	108.190810 
287.500000	110.207090 
288.000000	113.082053 
288.500000	117.139818 
289.000000	122.235348 
289.500000	127.962507 
290.000000	133.862000 

