PE FL                   SPECTRUM    ASCII       PEDS        1.60        
  -1
CDSRT#45.SP
02/03/22
03:23:05.00
02/03/22
03:25:20.00


600.000000
1









LS55
365.00
5.00
5.00
SCAN
1
20
100
100
0
100
0
1
0
1
7
ON
600 365 
1 0 0
#HDR
-1
-1
#GR
NM

0.00002384185791015625
0.0
390.000000
0.500000
421
8
57.798393
3.835999
#DATA
390.000000	3.835999  
390.500000	4.068227  
391.000000	4.249113  
391.500000	4.376962  
392.000000	4.485227  
392.500000	4.607863  
393.000000	4.735749  
393.500000	4.872780  
394.000000	4.997719  
394.500000	5.152530  
395.000000	5.320030  
395.500000	5.486462  
396.000000	5.623696  
396.500000	5.795492  
397.000000	5.998318  
397.500000	6.214856  
398.000000	6.390401  
398.500000	6.518863  
399.000000	6.635909  
399.500000	6.808386  
400.000000	7.060295  
400.500000	7.296409  
401.000000	7.501606  
401.500000	7.670810  
402.000000	7.872628  
402.500000	8.076833  
403.000000	8.291492  
403.500000	8.450530  
404.000000	8.616386  
404.500000	8.786651  
405.000000	9.027310  
405.500000	9.255522  
406.000000	9.479583  
406.500000	9.657560  
407.000000	9.839939  
407.500000	10.010886 
408.000000	10.243363 
408.500000	10.486636 
409.000000	10.698196 
409.500000	10.845393 
410.000000	11.007143 
410.500000	11.214977 
411.000000	11.446522 
411.500000	11.642439 
412.000000	11.854128 
412.500000	12.114492 
413.000000	12.393265 
413.500000	12.609090 
414.000000	12.784234 
414.500000	12.965363 
415.000000	13.212636 
415.500000	13.519893 
416.000000	13.832280 
416.500000	14.141386 
417.000000	14.429553 
417.500000	14.711333 
418.000000	14.889310 
418.500000	14.982818 
419.000000	15.089053 
419.500000	15.305401 
420.000000	15.573606 
420.500000	15.851060 
421.000000	16.184962 
421.500000	16.524659 
422.000000	16.801613 
422.500000	16.980181 
423.000000	17.212681 
423.500000	17.480946 
424.000000	17.761522 
424.500000	17.911045 
425.000000	18.046946 
425.500000	18.255742 
426.000000	18.577795 
426.500000	18.884022 
427.000000	19.119431 
427.500000	19.324121 
428.000000	19.548446 
428.500000	19.845340 
429.000000	20.093856 
429.500000	20.331484 
430.000000	20.509803 
430.500000	20.769189 
431.000000	21.032181 
431.500000	21.260931 
432.000000	21.346348 
432.500000	21.466166 
433.000000	21.694606 
433.500000	22.063075 
434.000000	22.373856 
434.500000	22.534060 
435.000000	22.542674 
435.500000	22.642507 
436.000000	22.912727 
436.500000	23.252598 
437.000000	23.466318 
437.500000	23.566083 
438.000000	23.701500 
438.500000	23.904598 
439.000000	24.116507 
439.500000	24.254318 
440.000000	24.417969 
440.500000	24.627772 
441.000000	24.900037 
441.500000	25.128530 
442.000000	25.275560 
442.500000	25.366121 
443.000000	25.473734 
443.500000	25.629439 
444.000000	25.763689 
444.500000	25.892863 
445.000000	26.074560 
445.500000	26.322272 
446.000000	26.536621 
446.500000	26.673189 
447.000000	26.690257 
447.500000	26.719159 
448.000000	26.750242 
448.500000	26.849469 
449.000000	27.069121 
449.500000	27.359166 
450.000000	27.516810 
450.500000	27.490083 
451.000000	27.401962 
451.500000	27.508924 
452.000000	27.780924 
452.500000	27.954083 
453.000000	28.005431 
453.500000	28.022053 
454.000000	28.136045 
454.500000	28.314878 
455.000000	28.519416 
455.500000	28.652803 
456.000000	28.768257 
456.500000	28.800386 
457.000000	28.841045 
457.500000	28.932719 
458.000000	29.143022 
458.500000	29.422954 
459.000000	29.665484 
459.500000	29.825946 
460.000000	29.915409 
460.500000	29.989863 
461.000000	30.096484 
461.500000	30.250325 
462.000000	30.431583 
462.500000	30.589053 
463.000000	30.697568 
463.500000	30.772318 
464.000000	30.884545 
464.500000	31.080621 
465.000000	31.384962 
465.500000	31.706424 
466.000000	31.932575 
466.500000	32.047719 
467.000000	32.103946 
467.500000	32.210537 
468.000000	32.469863 
468.500000	32.856363 
469.000000	33.176325 
469.500000	33.343030 
470.000000	33.419946 
470.500000	33.637787 
471.000000	34.032090 
471.500000	34.454757 
472.000000	34.866598 
472.500000	35.197840 
473.000000	35.425500 
473.500000	35.611598 
474.000000	35.949113 
474.500000	36.375734 
475.000000	36.812166 
475.500000	37.098151 
476.000000	37.488825 
476.500000	37.910969 
477.000000	38.351840 
477.500000	38.683386 
478.000000	39.088825 
478.500000	39.430318 
479.000000	39.852863 
479.500000	40.305795 
480.000000	40.891643 
480.500000	41.392568 
481.000000	41.732333 
481.500000	42.042030 
482.000000	42.597560 
482.500000	43.265954 
483.000000	43.788924 
483.500000	44.079515 
484.000000	44.377045 
484.500000	44.879159 
485.000000	45.507749 
485.500000	46.023113 
486.000000	46.407477 
486.500000	46.754454 
487.000000	47.117901 
487.500000	47.466810 
488.000000	47.901439 
488.500000	48.433318 
489.000000	49.053303 
489.500000	49.525128 
490.000000	49.864393 
490.500000	50.149348 
491.000000	50.555916 
491.500000	50.976128 
492.000000	51.306242 
492.500000	51.517348 
493.000000	51.757143 
493.500000	52.204878 
494.000000	52.682954 
494.500000	53.031196 
495.000000	53.250484 
495.500000	53.438068 
496.000000	53.684401 
496.500000	53.968348 
497.000000	54.285871 
497.500000	54.551492 
498.000000	54.823454 
498.500000	54.986590 
499.000000	55.206901 
499.500000	55.419696 
500.000000	55.671825 
500.500000	55.857674 
501.000000	55.964492 
501.500000	56.009507 
502.000000	56.205416 
502.500000	56.462484 
503.000000	56.721628 
503.500000	56.847098 
504.000000	56.915500 
504.500000	56.909734 
505.000000	56.951113 
505.500000	57.073356 
506.000000	57.254765 
506.500000	57.358674 
507.000000	57.388371 
507.500000	57.528000 
508.000000	57.670022 
508.500000	57.678454 
509.000000	57.607871 
509.500000	57.684068 
510.000000	57.798393 
510.500000	57.750734 
511.000000	57.587234 
511.500000	57.496068 
512.000000	57.611136 
512.500000	57.725946 
513.000000	57.673666 
513.500000	57.440431 
514.000000	57.378598 
514.500000	57.540696 
515.000000	57.705121 
515.500000	57.509128 
516.000000	57.200007 
516.500000	57.074409 
517.000000	57.151840 
517.500000	57.151287 
518.000000	57.003015 
518.500000	56.889568 
519.000000	56.901992 
519.500000	56.967674 
520.000000	56.924590 
520.500000	56.752924 
521.000000	56.509568 
521.500000	56.318462 
522.000000	56.266303 
522.500000	56.246515 
523.000000	56.195325 
523.500000	56.002992 
524.000000	55.821553 
524.500000	55.628643 
525.000000	55.512848 
525.500000	55.401515 
526.000000	55.316560 
526.500000	55.207575 
527.000000	55.163803 
527.500000	55.174106 
528.000000	55.123325 
528.500000	54.971598 
529.000000	54.775757 
529.500000	54.675045 
530.000000	54.648530 
530.500000	54.579757 
531.000000	54.428113 
531.500000	54.196053 
532.000000	53.970265 
532.500000	53.681636 
533.000000	53.390606 
533.500000	53.139515 
534.000000	53.092492 
534.500000	53.102295 
535.000000	52.961484 
535.500000	52.652803 
536.000000	52.350606 
536.500000	52.212659 
537.000000	52.108234 
537.500000	51.978924 
538.000000	51.816257 
538.500000	51.701295 
539.000000	51.504757 
539.500000	51.280348 
540.000000	51.132121 
540.500000	51.078537 
541.000000	50.916469 
541.500000	50.612681 
542.000000	50.392113 
542.500000	50.262553 
543.000000	50.181840 
543.500000	50.002871 
544.000000	49.797325 
544.500000	49.589212 
545.000000	49.485575 
545.500000	49.390537 
546.000000	49.184886 
546.500000	48.886446 
547.000000	48.611924 
547.500000	48.545378 
548.000000	48.413022 
548.500000	48.259530 
549.000000	48.040515 
549.500000	47.886128 
550.000000	47.666863 
550.500000	47.505181 
551.000000	47.336863 
551.500000	47.240636 
552.000000	47.065007 
552.500000	46.870674 
553.000000	46.650560 
553.500000	46.546068 
554.000000	46.438462 
554.500000	46.318772 
555.000000	46.010636 
555.500000	45.701113 
556.000000	45.519969 
556.500000	45.541696 
557.000000	45.554787 
557.500000	45.402204 
558.000000	45.150787 
558.500000	44.882803 
559.000000	44.736795 
559.500000	44.575742 
560.000000	44.467234 
560.500000	44.256856 
561.000000	44.011053 
561.500000	43.774962 
562.000000	43.704780 
562.500000	43.599287 
563.000000	43.365712 
563.500000	43.083325 
564.000000	42.921863 
564.500000	42.816840 
565.000000	42.611727 
565.500000	42.326053 
566.000000	42.090856 
566.500000	41.963871 
567.000000	41.853242 
567.500000	41.716568 
568.000000	41.550424 
568.500000	41.399015 
569.000000	41.299606 
569.500000	41.149939 
570.000000	40.922863 
570.500000	40.598757 
571.000000	40.339946 
571.500000	40.176287 
572.000000	40.082098 
572.500000	39.974242 
573.000000	39.834022 
573.500000	39.690780 
574.000000	39.516045 
574.500000	39.314128 
575.000000	39.010469 
575.500000	38.729719 
576.000000	38.566106 
576.500000	38.529515 
577.000000	38.432416 
577.500000	38.202507 
578.000000	37.977636 
578.500000	37.834916 
579.000000	37.659613 
579.500000	37.421901 
580.000000	37.251325 
580.500000	37.149734 
581.000000	37.033227 
581.500000	36.855909 
582.000000	36.659568 
582.500000	36.435946 
583.000000	36.286507 
583.500000	36.191787 
584.000000	36.115363 
584.500000	35.917106 
585.000000	35.717363 
585.500000	35.561196 
586.000000	35.456833 
586.500000	35.253393 
587.000000	35.088530 
587.500000	34.929500 
588.000000	34.763348 
588.500000	34.547287 
589.000000	34.372742 
589.500000	34.278893 
590.000000	34.202666 
590.500000	34.130000 
591.000000	34.025712 
591.500000	33.864303 
592.000000	33.624939 
592.500000	33.383772 
593.000000	33.175628 
593.500000	32.967901 
594.000000	32.740719 
594.500000	32.588090 
595.000000	32.491969 
595.500000	32.357628 
596.000000	32.078227 
596.500000	31.828045 
597.000000	31.716833 
597.500000	31.713704 
598.000000	31.622742 
598.500000	31.411378 
599.000000	31.177439 
599.500000	30.948121 
600.000000	30.731000 

