PE FL                   SPECTRUM    ASCII       PEDS        1.60        
  -1
CDSRT#21.SP
02/03/22
01:17:25.00
02/03/22
01:19:59.00


580.000000
1









LS55
310.00
5.00
5.00
SCAN
1
20
100
100
0
100
0
1
0
1
7
ON
550 310 
1 0 0
#HDR
-1
-1
#GR
NM

0.00002384185791015625
0.0
340.000000
0.500000
481
8
59.624219
16.648530
#DATA
340.000000	16.804000 
340.500000	16.648530 
341.000000	16.682818 
341.500000	16.888575 
342.000000	17.060371 
342.500000	17.173393 
343.000000	17.253204 
343.500000	17.328143 
344.000000	17.275212 
344.500000	17.191386 
345.000000	17.164462 
345.500000	17.288750 
346.000000	17.470287 
346.500000	17.612272 
347.000000	17.668030 
347.500000	17.681560 
348.000000	17.695727 
348.500000	17.724871 
349.000000	17.820848 
349.500000	17.963310 
350.000000	18.114121 
350.500000	18.227303 
351.000000	18.283643 
351.500000	18.384000 
352.000000	18.527174 
352.500000	18.718787 
353.000000	18.935530 
353.500000	19.138757 
354.000000	19.309878 
354.500000	19.473333 
355.000000	19.600174 
355.500000	19.643742 
356.000000	19.656992 
356.500000	19.807484 
357.000000	20.114636 
357.500000	20.399916 
358.000000	20.529393 
358.500000	20.669446 
359.000000	20.865901 
359.500000	21.072681 
360.000000	21.208174 
360.500000	21.327060 
361.000000	21.508287 
361.500000	21.721772 
362.000000	21.889977 
362.500000	22.014946 
363.000000	22.080931 
363.500000	22.121833 
364.000000	22.192560 
364.500000	22.321325 
365.000000	22.522469 
365.500000	22.739696 
366.000000	22.911969 
366.500000	23.063227 
367.000000	23.241106 
367.500000	23.393348 
368.000000	23.474401 
368.500000	23.601719 
369.000000	23.821742 
369.500000	24.093878 
370.000000	24.245749 
370.500000	24.410265 
371.000000	24.720818 
371.500000	25.106901 
372.000000	25.375696 
372.500000	25.511651 
373.000000	25.684030 
373.500000	25.948750 
374.000000	26.246840 
374.500000	26.548151 
375.000000	26.933000 
375.500000	27.369189 
376.000000	27.720204 
376.500000	27.960007 
377.000000	28.224045 
377.500000	28.709992 
378.000000	29.309325 
378.500000	29.851469 
379.000000	30.292916 
379.500000	30.747628 
380.000000	31.177674 
380.500000	31.560916 
381.000000	31.853166 
381.500000	32.245234 
382.000000	32.681325 
382.500000	33.227128 
383.000000	33.725712 
383.500000	34.262962 
384.000000	34.685749 
384.500000	35.170613 
385.000000	35.619893 
385.500000	36.206068 
386.000000	36.772553 
386.500000	37.396750 
387.000000	37.870462 
387.500000	38.293204 
388.000000	38.657121 
388.500000	39.171371 
389.000000	39.770098 
389.500000	40.338560 
390.000000	40.781128 
390.500000	41.251371 
391.000000	41.878878 
391.500000	42.531878 
392.000000	43.047386 
392.500000	43.419356 
393.000000	43.786689 
393.500000	44.220318 
394.000000	44.634022 
394.500000	45.045628 
395.000000	45.480424 
395.500000	46.032848 
396.000000	46.599651 
396.500000	47.074750 
397.000000	47.429204 
397.500000	47.809249 
398.000000	48.288893 
398.500000	48.827651 
399.000000	49.396143 
399.500000	49.884393 
400.000000	50.327689 
400.500000	50.678098 
401.000000	51.082833 
401.500000	51.438916 
402.000000	51.832212 
402.500000	52.114053 
403.000000	52.445856 
403.500000	52.766363 
404.000000	53.163189 
404.500000	53.520575 
405.000000	53.864863 
405.500000	54.198325 
406.000000	54.596628 
406.500000	55.040378 
407.000000	55.426666 
407.500000	55.654295 
408.000000	55.812719 
408.500000	56.023121 
409.000000	56.371916 
409.500000	56.680901 
410.000000	56.980651 
410.500000	57.243803 
411.000000	57.473613 
411.500000	57.551583 
412.000000	57.577015 
412.500000	57.659939 
413.000000	57.800333 
413.500000	57.999825 
414.000000	58.198477 
414.500000	58.368780 
415.000000	58.455181 
415.500000	58.607742 
416.000000	58.899500 
416.500000	59.147045 
417.000000	59.199666 
417.500000	59.042621 
418.000000	58.981045 
418.500000	59.097886 
419.000000	59.384477 
419.500000	59.552166 
420.000000	59.624219 
420.500000	59.598386 
421.000000	59.566219 
421.500000	59.537727 
422.000000	59.533742 
422.500000	59.545340 
423.000000	59.571674 
423.500000	59.506446 
424.000000	59.356636 
424.500000	59.161295 
425.000000	59.128681 
425.500000	59.157666 
426.000000	59.213151 
426.500000	59.012424 
427.000000	58.818159 
427.500000	58.596712 
428.000000	58.459318 
428.500000	58.288681 
429.000000	58.223378 
429.500000	58.113007 
430.000000	57.938356 
430.500000	57.661749 
431.000000	57.416856 
431.500000	57.257159 
432.000000	56.995734 
432.500000	56.653075 
433.000000	56.334166 
433.500000	56.179537 
434.000000	56.025636 
434.500000	55.764984 
435.000000	55.345621 
435.500000	54.937924 
436.000000	54.651015 
436.500000	54.561977 
437.000000	54.513083 
437.500000	54.289848 
438.000000	53.929045 
438.500000	53.623515 
439.000000	53.384212 
439.500000	53.100598 
440.000000	52.726386 
440.500000	52.322545 
441.000000	51.991530 
441.500000	51.645742 
442.000000	51.258659 
442.500000	50.871674 
443.000000	50.573583 
443.500000	50.260204 
444.000000	49.893143 
444.500000	49.544030 
445.000000	49.303439 
445.500000	49.011780 
446.000000	48.618159 
446.500000	48.226886 
447.000000	47.986871 
447.500000	47.706151 
448.000000	47.282924 
448.500000	46.798553 
449.000000	46.429401 
449.500000	46.206939 
450.000000	45.988893 
450.500000	45.625386 
451.000000	45.132265 
451.500000	44.697424 
452.000000	44.298931 
452.500000	43.961196 
453.000000	43.614136 
453.500000	43.379757 
454.000000	43.091893 
454.500000	42.776999 
455.000000	42.349553 
455.500000	42.104522 
456.000000	41.900431 
456.500000	41.688522 
457.000000	41.259696 
457.500000	40.822219 
458.000000	40.462750 
458.500000	40.216022 
459.000000	39.971734 
459.500000	39.632636 
460.000000	39.184893 
460.500000	38.688992 
461.000000	38.403704 
461.500000	38.320545 
462.000000	38.300674 
462.500000	38.099113 
463.000000	37.811674 
463.500000	37.466803 
464.000000	37.136696 
464.500000	36.829136 
465.000000	36.546507 
465.500000	36.222045 
466.000000	35.840856 
466.500000	35.468651 
467.000000	35.142106 
467.500000	34.873166 
468.000000	34.610196 
468.500000	34.384439 
469.000000	34.213886 
469.500000	34.062492 
470.000000	33.872037 
470.500000	33.665931 
471.000000	33.426568 
471.500000	33.213628 
472.000000	32.978196 
472.500000	32.738825 
473.000000	32.512643 
473.500000	32.374439 
474.000000	32.172439 
474.500000	31.910174 
475.000000	31.569825 
475.500000	31.327787 
476.000000	31.203825 
476.500000	31.052454 
477.000000	30.772181 
477.500000	30.478333 
478.000000	30.343575 
478.500000	30.252878 
479.000000	30.117257 
479.500000	29.869780 
480.000000	29.728840 
480.500000	29.583818 
481.000000	29.393621 
481.500000	29.195492 
482.000000	29.116159 
482.500000	29.106568 
483.000000	29.060613 
483.500000	28.940840 
484.000000	28.779295 
484.500000	28.584515 
485.000000	28.367363 
485.500000	28.213810 
486.000000	28.200537 
486.500000	28.157500 
487.000000	28.018416 
487.500000	27.739719 
488.000000	27.583568 
488.500000	27.506583 
489.000000	27.423924 
489.500000	27.255878 
490.000000	27.162318 
490.500000	27.052287 
491.000000	26.849765 
491.500000	26.624742 
492.000000	26.501295 
492.500000	26.465628 
493.000000	26.419848 
493.500000	26.370916 
494.000000	26.288863 
494.500000	26.158825 
495.000000	26.016893 
495.500000	26.017492 
496.000000	26.049022 
496.500000	26.015219 
497.000000	25.881522 
497.500000	25.784803 
498.000000	25.706568 
498.500000	25.663674 
499.000000	25.628787 
499.500000	25.606234 
500.000000	25.553189 
500.500000	25.458075 
501.000000	25.400545 
501.500000	25.409212 
502.000000	25.457166 
502.500000	25.481045 
503.000000	25.492416 
503.500000	25.501818 
504.000000	25.548780 
504.500000	25.600053 
505.000000	25.590128 
505.500000	25.522666 
506.000000	25.447757 
506.500000	25.426189 
507.000000	25.449424 
507.500000	25.414787 
508.000000	25.368106 
508.500000	25.355719 
509.000000	25.386257 
509.500000	25.386977 
510.000000	25.367590 
510.500000	25.385492 
511.000000	25.435393 
511.500000	25.436401 
512.000000	25.369515 
512.500000	25.356946 
513.000000	25.399022 
513.500000	25.359325 
514.000000	25.216621 
514.500000	25.033000 
515.000000	24.956848 
515.500000	24.913871 
516.000000	24.996037 
516.500000	25.129121 
517.000000	25.253128 
517.500000	25.194333 
518.000000	24.980962 
518.500000	24.767462 
519.000000	24.635871 
519.500000	24.648598 
520.000000	24.695795 
520.500000	24.744810 
521.000000	24.661795 
521.500000	24.569696 
522.000000	24.486840 
522.500000	24.482234 
523.000000	24.513477 
523.500000	24.552871 
524.000000	24.555166 
524.500000	24.499431 
525.000000	24.418878 
525.500000	24.363083 
526.000000	24.361007 
526.500000	24.384689 
527.000000	24.428121 
527.500000	24.474613 
528.000000	24.441659 
528.500000	24.306545 
529.000000	24.108787 
529.500000	23.977015 
530.000000	23.975022 
530.500000	24.062689 
531.000000	24.087136 
531.500000	24.014772 
532.000000	23.864454 
532.500000	23.805280 
533.000000	23.809045 
533.500000	23.819310 
534.000000	23.706431 
534.500000	23.582363 
535.000000	23.523787 
535.500000	23.553439 
536.000000	23.577946 
536.500000	23.470674 
537.000000	23.326643 
537.500000	23.232037 
538.000000	23.274386 
538.500000	23.302878 
539.000000	23.317409 
539.500000	23.295090 
540.000000	23.267962 
540.500000	23.172356 
541.000000	23.048053 
541.500000	22.944522 
542.000000	22.865257 
542.500000	22.767666 
543.000000	22.735636 
543.500000	22.801265 
544.000000	22.915901 
544.500000	22.949431 
545.000000	22.865560 
545.500000	22.711643 
546.000000	22.593651 
546.500000	22.535022 
547.000000	22.492931 
547.500000	22.444689 
548.000000	22.388393 
548.500000	22.295643 
549.000000	22.225477 
549.500000	22.195106 
550.000000	22.256727 
550.500000	22.258265 
551.000000	22.218393 
551.500000	22.104674 
552.000000	22.007507 
552.500000	21.899469 
553.000000	21.835946 
553.500000	21.808772 
554.000000	21.845393 
554.500000	21.869583 
555.000000	21.832507 
555.500000	21.721462 
556.000000	21.660143 
556.500000	21.622924 
557.000000	21.604750 
557.500000	21.572636 
558.000000	21.623151 
558.500000	21.657878 
559.000000	21.586250 
559.500000	21.426780 
560.000000	21.350696 
560.500000	21.357431 
561.000000	21.340143 
561.500000	21.233348 
562.000000	21.120348 
562.500000	21.102984 
563.000000	21.129280 
563.500000	21.119113 
564.000000	21.076560 
564.500000	21.050401 
565.000000	20.978628 
565.500000	20.843651 
566.000000	20.697583 
566.500000	20.580340 
567.000000	20.508643 
567.500000	20.485507 
568.000000	20.489886 
568.500000	20.420143 
569.000000	20.265924 
569.500000	20.108954 
570.000000	20.013022 
570.500000	19.985893 
571.000000	20.012553 
571.500000	20.139803 
572.000000	20.229272 
572.500000	20.235318 
573.000000	20.088098 
573.500000	19.914977 
574.000000	19.745553 
574.500000	19.664568 
575.000000	19.599128 
575.500000	19.562651 
576.000000	19.517075 
576.500000	19.491666 
577.000000	19.471348 
577.500000	19.448939 
578.000000	19.441924 
578.500000	19.436469 
579.000000	19.385863 
579.500000	19.229666 
580.000000	18.970000 

