PE FL                   SPECTRUM    ASCII       PEDS        1.60        
  -1
CDSRT#20.SP
02/03/22
01:14:51.00
02/03/22
01:17:09.00


550.000000
1









LS55
310.00
5.00
5.00
SCAN
1
20
100
100
0
100
0
1
0
1
7
ON
600 365 
1 0 0
#HDR
-1
-1
#GR
NM

0.00002384185791015625
0.0
340.000000
0.500000
421
8
59.346295
16.928401
#DATA
340.000000	17.153000 
340.500000	17.003977 
341.000000	16.928401 
341.500000	16.964651 
342.000000	17.053424 
342.500000	17.190803 
343.000000	17.260727 
343.500000	17.335068 
344.000000	17.341075 
344.500000	17.337257 
345.000000	17.306075 
345.500000	17.345356 
346.000000	17.484901 
346.500000	17.722151 
347.000000	17.857348 
347.500000	17.791204 
348.000000	17.665568 
348.500000	17.668568 
349.000000	17.847015 
349.500000	17.997143 
350.000000	18.101840 
350.500000	18.201446 
351.000000	18.389363 
351.500000	18.568590 
352.000000	18.744606 
352.500000	18.875962 
353.000000	19.013159 
353.500000	19.133378 
354.000000	19.318446 
354.500000	19.526234 
355.000000	19.726962 
355.500000	19.820977 
356.000000	19.865772 
356.500000	19.932068 
357.000000	20.159818 
357.500000	20.454840 
358.000000	20.709098 
358.500000	20.876219 
359.000000	21.054287 
359.500000	21.254924 
360.000000	21.473984 
360.500000	21.659962 
361.000000	21.815553 
361.500000	21.932780 
362.000000	21.987500 
362.500000	22.055712 
363.000000	22.149643 
363.500000	22.339537 
364.000000	22.511704 
364.500000	22.649287 
365.000000	22.702007 
365.500000	22.795598 
366.000000	22.939727 
366.500000	23.148454 
367.000000	23.365371 
367.500000	23.519848 
368.000000	23.620219 
368.500000	23.715924 
369.000000	23.946689 
369.500000	24.251742 
370.000000	24.571734 
370.500000	24.766303 
371.000000	24.892590 
371.500000	25.024272 
372.000000	25.259696 
372.500000	25.559704 
373.000000	25.871015 
373.500000	26.189931 
374.000000	26.515000 
374.500000	26.870689 
375.000000	27.213348 
375.500000	27.592250 
376.000000	28.006886 
376.500000	28.420984 
377.000000	28.748075 
377.500000	29.017984 
378.000000	29.296356 
378.500000	29.640636 
379.000000	30.016287 
379.500000	30.536325 
380.000000	31.069818 
380.500000	31.574363 
381.000000	31.917068 
381.500000	32.359962 
382.000000	32.882257 
382.500000	33.434787 
383.000000	33.810856 
383.500000	34.144250 
384.000000	34.504416 
384.500000	35.007833 
385.000000	35.631727 
385.500000	36.289590 
386.000000	36.870916 
386.500000	37.320893 
387.000000	37.748265 
387.500000	38.243840 
388.000000	38.859128 
388.500000	39.462590 
389.000000	39.969727 
389.500000	40.354924 
390.000000	40.789916 
390.500000	41.300772 
391.000000	41.886075 
391.500000	42.395878 
392.000000	42.896643 
392.500000	43.331234 
393.000000	43.756386 
393.500000	44.217113 
394.000000	44.804575 
394.500000	45.374704 
395.000000	45.943128 
395.500000	46.378318 
396.000000	46.789954 
396.500000	47.148575 
397.000000	47.588765 
397.500000	48.003909 
398.000000	48.494128 
398.500000	48.898196 
399.000000	49.344575 
399.500000	49.748560 
400.000000	50.180643 
400.500000	50.655454 
401.000000	51.091219 
401.500000	51.405075 
402.000000	51.691545 
402.500000	51.968530 
403.000000	52.288848 
403.500000	52.625916 
404.000000	53.150219 
404.500000	53.692901 
405.000000	54.176166 
405.500000	54.366106 
406.000000	54.513969 
406.500000	54.679424 
407.000000	54.907219 
407.500000	55.219750 
408.000000	55.547113 
408.500000	55.877378 
409.000000	56.034909 
409.500000	56.172787 
410.000000	56.272515 
410.500000	56.597984 
411.000000	57.047204 
411.500000	57.554083 
412.000000	57.797969 
412.500000	57.764409 
413.000000	57.623000 
413.500000	57.744159 
414.000000	58.106712 
414.500000	58.497265 
415.000000	58.653825 
415.500000	58.704886 
416.000000	58.735378 
416.500000	58.814765 
417.000000	58.863045 
417.500000	58.891810 
418.000000	58.965348 
418.500000	59.071068 
419.000000	59.270356 
419.500000	59.346295 
420.000000	59.333598 
420.500000	59.253666 
421.000000	59.266803 
421.500000	59.222371 
422.000000	59.122962 
422.500000	59.123007 
423.000000	59.243128 
423.500000	59.293492 
424.000000	59.183287 
424.500000	58.962636 
425.000000	58.755931 
425.500000	58.634045 
426.000000	58.707992 
426.500000	58.862848 
427.000000	58.885075 
427.500000	58.633696 
428.000000	58.295280 
428.500000	57.992030 
429.000000	57.713477 
429.500000	57.472704 
430.000000	57.284545 
430.500000	57.174121 
431.000000	57.008674 
431.500000	56.749022 
432.000000	56.454825 
432.500000	56.187901 
433.000000	55.941113 
433.500000	55.758833 
434.000000	55.565659 
434.500000	55.337196 
435.000000	55.109795 
435.500000	54.942310 
436.000000	54.793666 
436.500000	54.502553 
437.000000	54.147757 
437.500000	53.795553 
438.000000	53.530136 
438.500000	53.184446 
439.000000	52.771537 
439.500000	52.282765 
440.000000	51.986295 
440.500000	51.790393 
441.000000	51.606181 
441.500000	51.228659 
442.000000	50.872886 
442.500000	50.500060 
443.000000	50.135499 
443.500000	49.608712 
444.000000	49.265053 
444.500000	48.984348 
445.000000	48.737500 
445.500000	48.339901 
446.000000	47.980939 
446.500000	47.619734 
447.000000	47.288795 
447.500000	46.942530 
448.000000	46.569522 
448.500000	46.183159 
449.000000	45.771583 
449.500000	45.422795 
450.000000	45.059439 
450.500000	44.668265 
451.000000	44.243803 
451.500000	43.902515 
452.000000	43.639083 
452.500000	43.402000 
453.000000	43.093250 
453.500000	42.676689 
454.000000	42.253446 
454.500000	41.922287 
455.000000	41.669416 
455.500000	41.433378 
456.000000	41.195333 
456.500000	40.890363 
457.000000	40.490492 
457.500000	40.075999 
458.000000	39.813568 
458.500000	39.660999 
459.000000	39.468696 
459.500000	39.138659 
460.000000	38.747166 
460.500000	38.356515 
461.000000	38.024242 
461.500000	37.680530 
462.000000	37.325780 
462.500000	36.972772 
463.000000	36.667878 
463.500000	36.338325 
464.000000	36.030727 
464.500000	35.773575 
465.000000	35.636803 
465.500000	35.433257 
466.000000	35.188992 
466.500000	34.920136 
467.000000	34.717780 
467.500000	34.488310 
468.000000	34.187325 
468.500000	33.815204 
469.000000	33.472272 
469.500000	33.221000 
470.000000	33.030272 
470.500000	32.882295 
471.000000	32.727431 
471.500000	32.513901 
472.000000	32.226090 
472.500000	31.918181 
473.000000	31.735469 
473.500000	31.662848 
474.000000	31.559696 
474.500000	31.335924 
475.000000	31.051825 
475.500000	30.756681 
476.000000	30.441583 
476.500000	30.159356 
477.000000	29.942242 
477.500000	29.803666 
478.000000	29.634545 
478.500000	29.434704 
479.000000	29.272022 
479.500000	29.131356 
480.000000	29.032553 
480.500000	28.913848 
481.000000	28.767666 
481.500000	28.547469 
482.000000	28.313174 
482.500000	28.076310 
483.000000	27.936416 
483.500000	27.894818 
484.000000	27.837787 
484.500000	27.674113 
485.000000	27.477174 
485.500000	27.357121 
486.000000	27.311030 
486.500000	27.180515 
487.000000	27.007719 
487.500000	26.847469 
488.000000	26.750250 
488.500000	26.578151 
489.000000	26.368954 
489.500000	26.102606 
490.000000	25.924053 
490.500000	25.815818 
491.000000	25.795674 
491.500000	25.771060 
492.000000	25.720810 
492.500000	25.577719 
493.000000	25.464113 
493.500000	25.395151 
494.000000	25.349431 
494.500000	25.223507 
495.000000	25.058878 
495.500000	24.970780 
496.000000	25.008833 
496.500000	25.080424 
497.000000	25.039984 
497.500000	24.902742 
498.000000	24.746280 
498.500000	24.721121 
499.000000	24.840143 
499.500000	24.928378 
500.000000	24.845643 
500.500000	24.646287 
501.000000	24.547196 
501.500000	24.576234 
502.000000	24.600272 
502.500000	24.551045 
503.000000	24.506522 
503.500000	24.496674 
504.000000	24.428272 
504.500000	24.330901 
505.000000	24.267068 
505.500000	24.333371 
506.000000	24.400742 
506.500000	24.407174 
507.000000	24.357340 
507.500000	24.362666 
508.000000	24.362462 
508.500000	24.382121 
509.000000	24.431083 
509.500000	24.470386 
510.000000	24.371000 
510.500000	24.158045 
511.000000	24.011333 
511.500000	24.022636 
512.000000	24.107477 
512.500000	24.123484 
513.000000	24.103303 
513.500000	24.067500 
514.000000	24.078363 
514.500000	24.113530 
515.000000	24.116227 
515.500000	24.050984 
516.000000	23.904174 
516.500000	23.751007 
517.000000	23.690174 
517.500000	23.764803 
518.000000	23.869666 
518.500000	23.934643 
519.000000	23.889318 
519.500000	23.716462 
520.000000	23.534280 
520.500000	23.452689 
521.000000	23.499901 
521.500000	23.515287 
522.000000	23.464621 
522.500000	23.423553 
523.000000	23.431545 
523.500000	23.444477 
524.000000	23.423742 
524.500000	23.399053 
525.000000	23.320803 
525.500000	23.222318 
526.000000	23.100871 
526.500000	22.985689 
527.000000	22.929333 
527.500000	22.978515 
528.000000	23.049628 
528.500000	23.068113 
529.000000	22.965128 
529.500000	22.846189 
530.000000	22.746053 
530.500000	22.745250 
531.000000	22.756037 
531.500000	22.794030 
532.000000	22.781280 
532.500000	22.771045 
533.000000	22.706840 
533.500000	22.580621 
534.000000	22.525545 
534.500000	22.533234 
535.000000	22.542068 
535.500000	22.434689 
536.000000	22.373765 
536.500000	22.339212 
537.000000	22.352901 
537.500000	22.293537 
538.000000	22.292734 
538.500000	22.266022 
539.000000	22.186772 
539.500000	22.022984 
540.000000	21.928515 
540.500000	21.905659 
541.000000	21.908424 
541.500000	21.885651 
542.000000	21.820969 
542.500000	21.775272 
543.000000	21.736606 
543.500000	21.672712 
544.000000	21.556409 
544.500000	21.452303 
545.000000	21.421075 
545.500000	21.444371 
546.000000	21.467651 
546.500000	21.400833 
547.000000	21.325886 
547.500000	21.244310 
548.000000	21.220015 
548.500000	21.210750 
549.000000	21.174310 
549.500000	20.991045 
550.000000	20.685000 

