PE FL                   SPECTRUM    ASCII       PEDS        1.60        
  -1
CDSRT#48.SP
02/03/22
03:29:46.00
02/03/22
03:31:58.00


480.000000
1









LS55
520.00
5.00
5.00
SCAN
1
20
100
100
0
100
0
1
0
1
7
ON
373 520 
1 0 0
#HDR
-1
-1
#GR
NM

0.00002384185791015625
0.0
270.000000
0.500000
421
8
7.243000
0.804696
#DATA
270.000000	0.811000 
270.500000	0.831712 
271.000000	0.831106 
271.500000	0.816090 
272.000000	0.804696 
272.500000	0.806931 
273.000000	0.821848 
273.500000	0.836863 
274.000000	0.843272 
274.500000	0.848931 
275.000000	0.855348 
275.500000	0.861719 
276.000000	0.860090 
276.500000	0.860143 
277.000000	0.876257 
277.500000	0.895227 
278.000000	0.906674 
278.500000	0.902886 
279.000000	0.897477 
279.500000	0.892810 
280.000000	0.900681 
280.500000	0.903848 
281.000000	0.893606 
281.500000	0.876075 
282.000000	0.892060 
282.500000	0.934363 
283.000000	0.956863 
283.500000	0.941719 
284.000000	0.925106 
284.500000	0.939969 
285.000000	0.976795 
285.500000	1.024712 
286.000000	1.082477 
286.500000	1.169931 
287.000000	1.255098 
287.500000	1.310515 
288.000000	1.297030 
288.500000	1.229477 
289.000000	1.122962 
289.500000	1.025265 
290.000000	0.940325 
290.500000	0.901507 
291.000000	0.892053 
291.500000	0.902022 
292.000000	0.910083 
292.500000	0.915287 
293.000000	0.907886 
293.500000	0.890098 
294.000000	0.874166 
294.500000	0.860348 
295.000000	0.865030 
295.500000	0.868295 
296.000000	0.884530 
296.500000	0.884515 
297.000000	0.878636 
297.500000	0.864696 
298.000000	0.872954 
298.500000	0.883992 
299.000000	0.884901 
299.500000	0.871977 
300.000000	0.863939 
300.500000	0.861780 
301.000000	0.853075 
301.500000	0.839924 
302.000000	0.842295 
302.500000	0.853984 
303.000000	0.862916 
303.500000	0.858083 
304.000000	0.857318 
304.500000	0.857681 
305.000000	0.857909 
305.500000	0.857871 
306.000000	0.870507 
306.500000	0.887916 
307.000000	0.883265 
307.500000	0.858007 
308.000000	0.852560 
308.500000	0.879409 
309.000000	0.914659 
309.500000	0.923424 
310.000000	0.920242 
310.500000	0.915553 
311.000000	0.909871 
311.500000	0.893545 
312.000000	0.879204 
312.500000	0.878075 
313.000000	0.889287 
313.500000	0.902803 
314.000000	0.901696 
314.500000	0.894393 
315.000000	0.892325 
315.500000	0.899204 
316.000000	0.901007 
316.500000	0.892924 
317.000000	0.875901 
317.500000	0.854098 
318.000000	0.839431 
318.500000	0.847863 
319.000000	0.863795 
319.500000	0.876659 
320.000000	0.878749 
320.500000	0.881901 
321.000000	0.866446 
321.500000	0.844106 
322.000000	0.833969 
322.500000	0.856348 
323.000000	0.881454 
323.500000	0.891833 
324.000000	0.882674 
324.500000	0.873499 
325.000000	0.862848 
325.500000	0.860886 
326.000000	0.860469 
326.500000	0.872681 
327.000000	0.882674 
327.500000	0.894174 
328.000000	0.896969 
328.500000	0.903984 
329.000000	0.915106 
329.500000	0.919507 
330.000000	0.912750 
330.500000	0.891113 
331.000000	0.875484 
331.500000	0.864734 
332.000000	0.871628 
332.500000	0.877780 
333.000000	0.892113 
333.500000	0.896068 
334.000000	0.896090 
334.500000	0.884113 
335.000000	0.880090 
335.500000	0.880931 
336.000000	0.881606 
336.500000	0.879068 
337.000000	0.890833 
337.500000	0.910946 
338.000000	0.918219 
338.500000	0.905333 
339.000000	0.888969 
339.500000	0.893893 
340.000000	0.909431 
340.500000	0.921340 
341.000000	0.918113 
341.500000	0.921386 
342.000000	0.923333 
342.500000	0.930772 
343.000000	0.920598 
343.500000	0.900939 
344.000000	0.890590 
344.500000	0.910757 
345.000000	0.947295 
345.500000	0.957492 
346.000000	0.936598 
346.500000	0.910583 
347.000000	0.919113 
347.500000	0.947249 
348.000000	0.986265 
348.500000	1.014113 
349.000000	1.032992 
349.500000	1.041643 
350.000000	1.060446 
350.500000	1.103818 
351.000000	1.158242 
351.500000	1.188636 
352.000000	1.189863 
352.500000	1.195257 
353.000000	1.214098 
353.500000	1.245780 
354.000000	1.255992 
354.500000	1.263537 
355.000000	1.273613 
355.500000	1.305628 
356.000000	1.337712 
356.500000	1.368106 
357.000000	1.373469 
357.500000	1.371287 
358.000000	1.364106 
358.500000	1.367606 
359.000000	1.382462 
359.500000	1.411060 
360.000000	1.431045 
360.500000	1.448318 
361.000000	1.458909 
361.500000	1.472462 
362.000000	1.475780 
362.500000	1.478075 
363.000000	1.479553 
363.500000	1.492340 
364.000000	1.498409 
364.500000	1.520348 
365.000000	1.543795 
365.500000	1.567340 
366.000000	1.577424 
366.500000	1.596666 
367.000000	1.605575 
367.500000	1.606962 
368.000000	1.609030 
368.500000	1.625280 
369.000000	1.635265 
369.500000	1.624159 
370.000000	1.619401 
370.500000	1.634439 
371.000000	1.657492 
371.500000	1.670219 
372.000000	1.669250 
372.500000	1.652356 
373.000000	1.638984 
373.500000	1.649840 
374.000000	1.684090 
374.500000	1.709060 
375.000000	1.718045 
375.500000	1.717204 
376.000000	1.716454 
376.500000	1.720500 
377.000000	1.723696 
377.500000	1.736037 
378.000000	1.756636 
378.500000	1.784189 
379.000000	1.772818 
379.500000	1.742916 
380.000000	1.710871 
380.500000	1.723083 
381.000000	1.753295 
381.500000	1.773659 
382.000000	1.761469 
382.500000	1.719250 
383.000000	1.685287 
383.500000	1.696636 
384.000000	1.739984 
384.500000	1.752727 
385.000000	1.722484 
385.500000	1.683750 
386.000000	1.663810 
386.500000	1.657227 
387.000000	1.642522 
387.500000	1.632295 
388.000000	1.624295 
388.500000	1.624000 
389.000000	1.616840 
389.500000	1.596022 
390.000000	1.567803 
390.500000	1.558628 
391.000000	1.567651 
391.500000	1.571818 
392.000000	1.544545 
392.500000	1.513424 
393.000000	1.508000 
393.500000	1.524424 
394.000000	1.517560 
394.500000	1.490734 
395.000000	1.455348 
395.500000	1.436727 
396.000000	1.417537 
396.500000	1.411651 
397.000000	1.417553 
397.500000	1.445015 
398.000000	1.446878 
398.500000	1.424946 
399.000000	1.386674 
399.500000	1.384704 
400.000000	1.404303 
400.500000	1.424598 
401.000000	1.421128 
401.500000	1.432265 
402.000000	1.476287 
402.500000	1.526393 
403.000000	1.546613 
403.500000	1.537363 
404.000000	1.544757 
404.500000	1.575090 
405.000000	1.607356 
405.500000	1.618780 
406.000000	1.629848 
406.500000	1.654227 
407.000000	1.670272 
407.500000	1.659113 
408.000000	1.623909 
408.500000	1.599924 
409.000000	1.590462 
409.500000	1.613484 
410.000000	1.658863 
410.500000	1.719750 
411.000000	1.767287 
411.500000	1.799878 
412.000000	1.833651 
412.500000	1.892287 
413.000000	1.972848 
413.500000	2.054265 
414.000000	2.121083 
414.500000	2.192386 
415.000000	2.284901 
415.500000	2.357795 
416.000000	2.364848 
416.500000	2.340075 
417.000000	2.322916 
417.500000	2.295287 
418.000000	2.240439 
418.500000	2.178174 
419.000000	2.137787 
419.500000	2.089871 
420.000000	2.027371 
420.500000	1.982189 
421.000000	1.964431 
421.500000	1.948378 
422.000000	1.911810 
422.500000	1.902386 
423.000000	1.924962 
423.500000	1.977454 
424.000000	1.995128 
424.500000	1.999106 
425.000000	2.011068 
425.500000	2.045545 
426.000000	2.058204 
426.500000	2.038969 
427.000000	2.032719 
427.500000	2.042992 
428.000000	2.053704 
428.500000	2.033143 
429.000000	2.027954 
429.500000	2.044287 
430.000000	2.078984 
430.500000	2.100636 
431.000000	2.113825 
431.500000	2.129325 
432.000000	2.147969 
432.500000	2.181924 
433.000000	2.195712 
433.500000	2.185068 
434.000000	2.158325 
434.500000	2.168742 
435.000000	2.201371 
435.500000	2.248060 
436.000000	2.271136 
436.500000	2.296757 
437.000000	2.307537 
437.500000	2.315583 
438.000000	2.308106 
438.500000	2.327742 
439.000000	2.352871 
439.500000	2.381992 
440.000000	2.373280 
440.500000	2.358840 
441.000000	2.362863 
441.500000	2.416212 
442.000000	2.477825 
442.500000	2.526196 
443.000000	2.533242 
443.500000	2.531310 
444.000000	2.532181 
444.500000	2.563219 
445.000000	2.614439 
445.500000	2.687280 
446.000000	2.737803 
446.500000	2.763219 
447.000000	2.752348 
447.500000	2.753780 
448.000000	2.767022 
448.500000	2.822734 
449.000000	2.871136 
449.500000	2.909454 
450.000000	2.912954 
450.500000	2.924621 
451.000000	2.955636 
451.500000	3.003484 
452.000000	3.057295 
452.500000	3.103212 
453.000000	3.152446 
453.500000	3.183643 
454.000000	3.212954 
454.500000	3.251545 
455.000000	3.322522 
455.500000	3.394219 
456.000000	3.422257 
456.500000	3.433787 
457.000000	3.489128 
457.500000	3.590848 
458.000000	3.654954 
458.500000	3.662196 
459.000000	3.669765 
459.500000	3.722590 
460.000000	3.791204 
460.500000	3.833696 
461.000000	3.872969 
461.500000	3.923287 
462.000000	3.980825 
462.500000	4.021159 
463.000000	4.045431 
463.500000	4.046696 
464.000000	4.060363 
464.500000	4.099742 
465.000000	4.181840 
465.500000	4.275507 
466.000000	4.328909 
466.500000	4.357295 
467.000000	4.423242 
467.500000	4.527083 
468.000000	4.622909 
468.500000	4.669946 
469.000000	4.710174 
469.500000	4.808227 
470.000000	4.923022 
470.500000	5.033856 
471.000000	5.136560 
471.500000	5.255037 
472.000000	5.336212 
472.500000	5.381030 
473.000000	5.414901 
473.500000	5.535484 
474.000000	5.693696 
474.500000	5.823689 
475.000000	5.894810 
475.500000	5.986878 
476.000000	6.123871 
476.500000	6.244886 
477.000000	6.286606 
477.500000	6.291530 
478.000000	6.343507 
478.500000	6.459734 
479.000000	6.648128 
479.500000	6.908356 
480.000000	7.243000 

