PE FL                   SPECTRUM    ASCII       PEDS        1.60        
  -1
CDSRT#19.SP
02/03/22
01:12:10.00
02/03/22
01:14:32.00


600.000000
1









LS55
365.00
5.00
5.00
SCAN
1
20
100
100
0
100
0
1
0
1
7
ON
761 560 
1 0 0
#HDR
-1
-1
#GR
NM

0.00002384185791015625
0.0
390.000000
0.500000
421
8
56.133348
18.939000
#DATA
390.000000	18.939000 
390.500000	19.118856 
391.000000	19.496636 
391.500000	20.003098 
392.000000	20.487219 
392.500000	20.896818 
393.000000	21.309863 
393.500000	21.736818 
394.000000	22.195863 
394.500000	22.666765 
395.000000	23.178083 
395.500000	23.614378 
396.000000	24.085984 
396.500000	24.560515 
397.000000	25.119643 
397.500000	25.617500 
398.000000	26.129886 
398.500000	26.664560 
399.000000	27.295371 
399.500000	27.818484 
400.000000	28.297234 
400.500000	28.795348 
401.000000	29.443772 
401.500000	30.160999 
402.000000	30.856924 
402.500000	31.404416 
403.000000	31.849143 
403.500000	32.279053 
404.000000	32.850098 
404.500000	33.534424 
405.000000	34.154401 
405.500000	34.717613 
406.000000	35.251075 
406.500000	35.793545 
407.000000	36.340492 
407.500000	36.835030 
408.000000	37.368856 
408.500000	37.889219 
409.000000	38.432363 
409.500000	38.883045 
410.000000	39.334378 
410.500000	39.831871 
411.000000	40.510674 
411.500000	41.213113 
412.000000	41.733992 
412.500000	42.144856 
413.000000	42.604575 
413.500000	43.155431 
414.000000	43.701121 
414.500000	44.184098 
415.000000	44.700106 
415.500000	45.177181 
416.000000	45.595545 
416.500000	45.952553 
417.000000	46.435681 
417.500000	46.988810 
418.000000	47.588537 
418.500000	48.105204 
419.000000	48.509848 
419.500000	48.819606 
420.000000	49.124090 
420.500000	49.466636 
421.000000	49.863560 
421.500000	50.284113 
422.000000	50.697787 
422.500000	51.072606 
423.000000	51.365136 
423.500000	51.642696 
424.000000	51.935772 
424.500000	52.247492 
425.000000	52.517151 
425.500000	52.771636 
426.000000	52.946848 
426.500000	53.175022 
427.000000	53.443386 
427.500000	53.856393 
428.000000	54.240030 
428.500000	54.618727 
429.000000	54.778303 
429.500000	54.801204 
430.000000	54.743916 
430.500000	54.850522 
431.000000	55.060750 
431.500000	55.258015 
432.000000	55.382689 
432.500000	55.455446 
433.000000	55.542462 
433.500000	55.641537 
434.000000	55.797939 
434.500000	55.940409 
435.000000	55.996265 
435.500000	55.970439 
436.000000	55.859416 
436.500000	55.731242 
437.000000	55.671204 
437.500000	55.748863 
438.000000	55.906219 
438.500000	56.085060 
439.000000	56.133348 
439.500000	56.007068 
440.000000	55.861878 
440.500000	55.869333 
441.000000	55.944924 
441.500000	55.899863 
442.000000	55.697522 
442.500000	55.530553 
443.000000	55.432719 
443.500000	55.307037 
444.000000	55.077325 
444.500000	54.878863 
445.000000	54.737886 
445.500000	54.614409 
446.000000	54.456098 
446.500000	54.292856 
447.000000	54.173462 
447.500000	54.026143 
448.000000	53.807901 
448.500000	53.637606 
449.000000	53.536522 
449.500000	53.335249 
450.000000	52.969674 
450.500000	52.600871 
451.000000	52.405878 
451.500000	52.289166 
452.000000	52.101613 
452.500000	51.813537 
453.000000	51.612310 
453.500000	51.499431 
454.000000	51.407931 
454.500000	51.191424 
455.000000	50.863901 
455.500000	50.524401 
456.000000	50.239659 
456.500000	49.916075 
457.000000	49.495022 
457.500000	49.138848 
458.000000	49.025757 
458.500000	49.061757 
459.000000	48.947340 
459.500000	48.586606 
460.000000	48.211871 
460.500000	47.944204 
461.000000	47.705386 
461.500000	47.410621 
462.000000	47.185333 
462.500000	47.017863 
463.000000	46.840469 
463.500000	46.561242 
464.000000	46.313446 
464.500000	46.018000 
465.000000	45.659015 
465.500000	45.235946 
466.000000	44.937037 
466.500000	44.745090 
467.000000	44.644424 
467.500000	44.564992 
468.000000	44.450045 
468.500000	44.210787 
469.000000	43.911371 
469.500000	43.646363 
470.000000	43.424848 
470.500000	43.212863 
471.000000	42.890287 
471.500000	42.542545 
472.000000	42.270583 
472.500000	42.225416 
473.000000	42.202795 
473.500000	42.059356 
474.000000	41.714045 
474.500000	41.424318 
475.000000	41.240030 
475.500000	41.123128 
476.000000	40.958007 
476.500000	40.700189 
477.000000	40.414181 
477.500000	40.189727 
478.000000	40.119136 
478.500000	40.031181 
479.000000	39.841477 
479.500000	39.509325 
480.000000	39.213712 
480.500000	38.979590 
481.000000	38.797333 
481.500000	38.603454 
482.000000	38.436083 
482.500000	38.369492 
483.000000	38.372462 
483.500000	38.326454 
484.000000	38.054265 
484.500000	37.733409 
485.000000	37.522666 
485.500000	37.482189 
486.000000	37.351984 
486.500000	37.125393 
487.000000	36.950621 
487.500000	36.991734 
488.000000	37.014333 
488.500000	36.803318 
489.000000	36.421151 
489.500000	36.108878 
490.000000	35.974522 
490.500000	35.922083 
491.000000	35.884484 
491.500000	35.773628 
492.000000	35.585727 
492.500000	35.334181 
493.000000	35.216234 
493.500000	35.195901 
494.000000	35.161537 
494.500000	35.008704 
495.000000	34.918833 
495.500000	34.869492 
496.000000	34.801674 
496.500000	34.559242 
497.000000	34.311219 
497.500000	34.119310 
498.000000	34.042666 
498.500000	34.005575 
499.000000	34.060143 
499.500000	34.079765 
500.000000	33.997871 
500.500000	33.800318 
501.000000	33.648704 
501.500000	33.628439 
502.000000	33.678310 
502.500000	33.649340 
503.000000	33.559393 
503.500000	33.478946 
504.000000	33.520681 
504.500000	33.562515 
505.000000	33.541643 
505.500000	33.417265 
506.000000	33.387469 
506.500000	33.377984 
507.000000	33.403803 
507.500000	33.355901 
508.000000	33.319053 
508.500000	33.306840 
509.000000	33.316098 
509.500000	33.354946 
510.000000	33.436575 
510.500000	33.492287 
511.000000	33.368507 
511.500000	33.179303 
512.000000	33.053204 
512.500000	33.091621 
513.000000	33.144590 
513.500000	33.074106 
514.000000	32.864795 
514.500000	32.655787 
515.000000	32.541901 
515.500000	32.572227 
516.000000	32.602439 
516.500000	32.594704 
517.000000	32.567469 
517.500000	32.541212 
518.000000	32.482795 
518.500000	32.378143 
519.000000	32.314674 
519.500000	32.304712 
520.000000	32.330393 
520.500000	32.294742 
521.000000	32.252401 
521.500000	32.132984 
522.000000	32.006257 
522.500000	31.857083 
523.000000	31.760893 
523.500000	31.733643 
524.000000	31.765363 
524.500000	31.713939 
525.000000	31.602204 
525.500000	31.477303 
526.000000	31.395219 
526.500000	31.340272 
527.000000	31.275174 
527.500000	31.267303 
528.000000	31.293795 
528.500000	31.255734 
529.000000	31.114196 
529.500000	30.985371 
530.000000	30.947696 
530.500000	30.909007 
531.000000	30.792674 
531.500000	30.580734 
532.000000	30.453916 
532.500000	30.401106 
533.000000	30.378772 
533.500000	30.246462 
534.000000	30.035060 
534.500000	29.850128 
535.000000	29.742068 
535.500000	29.697189 
536.000000	29.661583 
536.500000	29.665704 
537.000000	29.699083 
537.500000	29.678515 
538.000000	29.541734 
538.500000	29.337181 
539.000000	29.202189 
539.500000	29.123234 
540.000000	29.078977 
540.500000	29.011803 
541.000000	28.913265 
541.500000	28.838962 
542.000000	28.704106 
542.500000	28.660674 
543.000000	28.628507 
543.500000	28.635886 
544.000000	28.481734 
544.500000	28.349734 
545.000000	28.208636 
545.500000	28.161045 
546.000000	28.066219 
546.500000	27.978409 
547.000000	27.849878 
547.500000	27.776560 
548.000000	27.757431 
548.500000	27.755136 
549.000000	27.607871 
549.500000	27.347318 
550.000000	27.146545 
550.500000	27.121750 
551.000000	27.184636 
551.500000	27.196371 
552.000000	27.099560 
552.500000	26.945287 
553.000000	26.829659 
553.500000	26.777363 
554.000000	26.771863 
554.500000	26.711825 
555.000000	26.578280 
555.500000	26.430272 
556.000000	26.361227 
556.500000	26.326515 
557.000000	26.274242 
557.500000	26.163954 
558.000000	26.080166 
558.500000	26.039204 
559.000000	25.965969 
559.500000	25.845037 
560.000000	25.699393 
560.500000	25.600219 
561.000000	25.574954 
561.500000	25.604378 
562.000000	25.597098 
562.500000	25.516212 
563.000000	25.350318 
563.500000	25.200446 
564.000000	25.153787 
564.500000	25.123106 
565.000000	25.010515 
565.500000	24.795636 
566.000000	24.630863 
566.500000	24.544651 
567.000000	24.580363 
567.500000	24.662909 
568.000000	24.768022 
568.500000	24.727636 
569.000000	24.523492 
569.500000	24.265409 
570.000000	24.161825 
570.500000	24.213666 
571.000000	24.186446 
571.500000	24.021272 
572.000000	23.807621 
572.500000	23.725537 
573.000000	23.688924 
573.500000	23.645454 
574.000000	23.580712 
574.500000	23.532924 
575.000000	23.474863 
575.500000	23.359750 
576.000000	23.260522 
576.500000	23.132772 
577.000000	23.060378 
577.500000	22.955196 
578.000000	22.884287 
578.500000	22.742568 
579.000000	22.618795 
579.500000	22.539765 
580.000000	22.588212 
580.500000	22.650431 
581.000000	22.609090 
581.500000	22.433386 
582.000000	22.214181 
582.500000	22.062333 
583.000000	21.946318 
583.500000	21.868007 
584.000000	21.800666 
584.500000	21.770333 
585.000000	21.744257 
585.500000	21.692356 
586.000000	21.600287 
586.500000	21.521962 
587.000000	21.450371 
587.500000	21.355462 
588.000000	21.236719 
588.500000	21.129022 
589.000000	21.065727 
589.500000	21.021401 
590.000000	20.988416 
590.500000	20.941477 
591.000000	20.868393 
591.500000	20.725833 
592.000000	20.603901 
592.500000	20.494325 
593.000000	20.442742 
593.500000	20.379901 
594.000000	20.298121 
594.500000	20.163833 
595.000000	20.063931 
595.500000	19.992121 
596.000000	19.957803 
596.500000	19.901303 
597.000000	19.811962 
597.500000	19.738598 
598.000000	19.642318 
598.500000	19.501204 
599.000000	19.330840 
599.500000	19.278840 
600.000000	19.372000 

