PE FL                   SPECTRUM    ASCII       PEDS        1.60        
  -1
CDSRT#32.SP
02/03/22
02:47:59.00
02/03/22
02:50:13.00


600.000000
1









LS55
365.00
5.00
5.00
SCAN
1
20
100
100
0
100
0
1
0
1
7
ON
540 280 
1 0 0
#HDR
-1
-1
#GR
NM

0.00002384185791015625
0.0
390.000000
0.500000
421
8
18.056159
4.497000
#DATA
390.000000	7.918999  
390.500000	8.001590  
391.000000	8.128590  
391.500000	8.302954  
392.000000	8.484083  
392.500000	8.628075  
393.000000	8.742356  
393.500000	8.877621  
394.000000	9.019045  
394.500000	9.122265  
395.000000	9.211371  
395.500000	9.302484  
396.000000	9.414636  
396.500000	9.504446  
397.000000	9.576696  
397.500000	9.661803  
398.000000	9.794060  
398.500000	9.924583  
399.000000	10.064621 
399.500000	10.242553 
400.000000	10.459924 
400.500000	10.640659 
401.000000	10.764181 
401.500000	10.882015 
402.000000	11.037651 
402.500000	11.236553 
403.000000	11.459348 
403.500000	11.681068 
404.000000	11.840916 
404.500000	11.954704 
405.000000	12.065484 
405.500000	12.250537 
406.000000	12.443575 
406.500000	12.648560 
407.000000	12.844696 
407.500000	13.054977 
408.000000	13.220113 
408.500000	13.318462 
409.000000	13.423431 
409.500000	13.609015 
410.000000	13.875045 
410.500000	14.094462 
411.000000	14.235878 
411.500000	14.288787 
412.000000	14.403939 
412.500000	14.568181 
413.000000	14.719295 
413.500000	14.788522 
414.000000	14.852303 
414.500000	15.028045 
415.000000	15.293318 
415.500000	15.540780 
416.000000	15.696909 
416.500000	15.792666 
417.000000	15.875333 
417.500000	15.991295 
418.000000	16.108424 
418.500000	16.192272 
419.000000	16.304727 
419.500000	16.456340 
420.000000	16.633666 
420.500000	16.757939 
421.000000	16.846977 
421.500000	16.891939 
422.000000	16.944128 
422.500000	17.023628 
423.000000	17.122984 
423.500000	17.204439 
424.000000	17.218348 
424.500000	17.183280 
425.000000	17.188045 
425.500000	17.302371 
426.000000	17.439674 
426.500000	17.540469 
427.000000	17.593575 
427.500000	17.674636 
428.000000	17.794946 
428.500000	17.871939 
429.000000	17.882681 
429.500000	17.846022 
430.000000	17.821280 
430.500000	17.814818 
431.000000	17.891242 
431.500000	17.984848 
432.000000	18.052000 
432.500000	18.015431 
433.000000	18.006446 
433.500000	18.028113 
434.000000	18.056159 
434.500000	17.988689 
435.000000	17.954219 
435.500000	17.973340 
436.000000	18.039333 
436.500000	17.990045 
437.000000	17.897439 
437.500000	17.810075 
438.000000	17.819037 
438.500000	17.899318 
439.000000	17.958628 
439.500000	17.931325 
440.000000	17.836196 
440.500000	17.759954 
441.000000	17.701045 
441.500000	17.680818 
442.000000	17.620780 
442.500000	17.515219 
443.000000	17.420946 
443.500000	17.381545 
444.000000	17.364840 
444.500000	17.311681 
445.000000	17.235098 
445.500000	17.150931 
446.000000	17.089128 
446.500000	17.037416 
447.000000	16.988378 
447.500000	16.905803 
448.000000	16.762651 
448.500000	16.603818 
449.000000	16.489992 
449.500000	16.454378 
450.000000	16.428106 
450.500000	16.364098 
451.000000	16.213886 
451.500000	16.075431 
452.000000	15.964606 
452.500000	15.898159 
453.000000	15.808689 
453.500000	15.756666 
454.000000	15.678795 
454.500000	15.610651 
455.000000	15.486833 
455.500000	15.362833 
456.000000	15.245484 
456.500000	15.194575 
457.000000	15.120318 
457.500000	15.005606 
458.000000	14.852462 
458.500000	14.728696 
459.000000	14.649454 
459.500000	14.597121 
460.000000	14.525401 
460.500000	14.427659 
461.000000	14.338931 
461.500000	14.261037 
462.000000	14.182015 
462.500000	14.105924 
463.000000	14.025901 
463.500000	13.940174 
464.000000	13.811742 
464.500000	13.699068 
465.000000	13.593530 
465.500000	13.483242 
466.000000	13.326742 
466.500000	13.235696 
467.000000	13.200492 
467.500000	13.156666 
468.000000	13.038272 
468.500000	12.929189 
469.000000	12.876727 
469.500000	12.862060 
470.000000	12.787628 
470.500000	12.668931 
471.000000	12.562189 
471.500000	12.488484 
472.000000	12.366462 
472.500000	12.255992 
473.000000	12.192651 
473.500000	12.201583 
474.000000	12.177469 
474.500000	12.093454 
475.000000	11.997416 
475.500000	11.902128 
476.000000	11.814219 
476.500000	11.673401 
477.000000	11.581136 
477.500000	11.513196 
478.000000	11.513106 
478.500000	11.435121 
479.000000	11.344386 
479.500000	11.276022 
480.000000	11.300166 
480.500000	11.303303 
481.000000	11.217053 
481.500000	11.097606 
482.000000	11.014128 
482.500000	11.030977 
483.000000	11.061681 
483.500000	11.064393 
484.000000	10.956000 
484.500000	10.853621 
485.000000	10.754439 
485.500000	10.703393 
486.000000	10.632568 
486.500000	10.563075 
487.000000	10.477363 
487.500000	10.387954 
488.000000	10.307037 
488.500000	10.246075 
489.000000	10.191962 
489.500000	10.106856 
490.000000	10.038265 
490.500000	9.983810  
491.000000	9.936356  
491.500000	9.884242  
492.000000	9.829113  
492.500000	9.775545  
493.000000	9.703878  
493.500000	9.661272  
494.000000	9.620553  
494.500000	9.618712  
495.000000	9.569166  
495.500000	9.519727  
496.000000	9.450060  
496.500000	9.432598  
497.000000	9.389060  
497.500000	9.330818  
498.000000	9.223886  
498.500000	9.166022  
499.000000	9.173651  
499.500000	9.232924  
500.000000	9.243325  
500.500000	9.209939  
501.000000	9.136409  
501.500000	9.075643  
502.000000	9.052810  
502.500000	9.060689  
503.000000	9.065590  
503.500000	9.070886  
504.000000	9.104272  
504.500000	9.147325  
505.000000	9.151265  
505.500000	9.114719  
506.000000	9.087431  
506.500000	9.085704  
507.000000	9.047090  
507.500000	8.986909  
508.000000	8.956795  
508.500000	8.973606  
509.000000	8.995727  
509.500000	8.952363  
510.000000	8.864931  
510.500000	8.785931  
511.000000	8.814689  
511.500000	8.931704  
512.000000	9.016681  
512.500000	8.958886  
513.000000	8.822696  
513.500000	8.728454  
514.000000	8.689272  
514.500000	8.638719  
515.000000	8.564575  
515.500000	8.549106  
516.000000	8.623007  
516.500000	8.691363  
517.000000	8.698530  
517.500000	8.649939  
518.000000	8.595015  
518.500000	8.528681  
519.000000	8.431257  
519.500000	8.357606  
520.000000	8.329242  
520.500000	8.369833  
521.000000	8.400250  
521.500000	8.404651  
522.000000	8.362234  
522.500000	8.335659  
523.000000	8.335553  
523.500000	8.332537  
524.000000	8.258931  
524.500000	8.159651  
525.000000	8.115871  
525.500000	8.135113  
526.000000	8.155719  
526.500000	8.151356  
527.000000	8.110106  
527.500000	8.047007  
528.000000	7.955606  
528.500000	7.876795  
529.000000	7.863325  
529.500000	7.883719  
530.000000	7.875750  
530.500000	7.834681  
531.000000	7.791007  
531.500000	7.786356  
532.000000	7.800659  
532.500000	7.820962  
533.000000	7.768469  
533.500000	7.672159  
534.000000	7.547810  
534.500000	7.511719  
535.000000	7.550492  
535.500000	7.583371  
536.000000	7.564780  
536.500000	7.503916  
537.000000	7.459219  
537.500000	7.432742  
538.000000	7.424765  
538.500000	7.370840  
539.000000	7.282340  
539.500000	7.220007  
540.000000	7.205886  
540.500000	7.233075  
541.000000	7.195916  
541.500000	7.148310  
542.000000	7.113242  
542.500000	7.096037  
543.000000	7.050007  
543.500000	7.024007  
544.000000	7.017295  
544.500000	7.015022  
545.000000	6.977045  
545.500000	6.913113  
546.000000	6.873825  
546.500000	6.868007  
547.000000	6.882106  
547.500000	6.887681  
548.000000	6.873613  
548.500000	6.856037  
549.000000	6.819810  
549.500000	6.743553  
550.000000	6.668833  
550.500000	6.660515  
551.000000	6.696098  
551.500000	6.715363  
552.000000	6.678295  
552.500000	6.645340  
553.000000	6.675204  
553.500000	6.701378  
554.000000	6.670825  
554.500000	6.567545  
555.000000	6.474727  
555.500000	6.417227  
556.000000	6.397295  
556.500000	6.401393  
557.000000	6.432083  
557.500000	6.457659  
558.000000	6.444969  
558.500000	6.399848  
559.000000	6.338810  
559.500000	6.299310  
560.000000	6.300249  
560.500000	6.301893  
561.000000	6.274393  
561.500000	6.236409  
562.000000	6.237462  
562.500000	6.264878  
563.000000	6.274765  
563.500000	6.207969  
564.000000	6.112295  
564.500000	6.040636  
565.000000	6.069757  
565.500000	6.135090  
566.000000	6.174386  
566.500000	6.134310  
567.000000	6.083704  
567.500000	6.040196  
568.000000	6.009962  
568.500000	5.991318  
569.000000	5.990204  
569.500000	5.995113  
570.000000	5.973856  
570.500000	5.930606  
571.000000	5.860530  
571.500000	5.796712  
572.000000	5.769530  
572.500000	5.787030  
573.000000	5.787446  
573.500000	5.763628  
574.000000	5.720143  
574.500000	5.693893  
575.000000	5.669378  
575.500000	5.673181  
576.000000	5.695083  
576.500000	5.711530  
577.000000	5.702583  
577.500000	5.695265  
578.000000	5.687401  
578.500000	5.664409  
579.000000	5.639568  
579.500000	5.622613  
580.000000	5.588507  
580.500000	5.531227  
581.000000	5.493689  
581.500000	5.493833  
582.000000	5.485537  
582.500000	5.444795  
583.000000	5.396212  
583.500000	5.359772  
584.000000	5.314515  
584.500000	5.257325  
585.000000	5.223242  
585.500000	5.217909  
586.000000	5.204606  
586.500000	5.174416  
587.000000	5.161121  
587.500000	5.198712  
588.000000	5.229659  
588.500000	5.220840  
589.000000	5.156393  
589.500000	5.121606  
590.000000	5.102522  
590.500000	5.127196  
591.000000	5.124772  
591.500000	5.107696  
592.000000	5.042060  
592.500000	4.987901  
593.000000	4.953742  
593.500000	4.959242  
594.000000	4.948878  
594.500000	4.935553  
595.000000	4.932227  
595.500000	4.968333  
596.000000	4.980030  
596.500000	4.960818  
597.000000	4.898946  
597.500000	4.851772  
598.000000	4.802613  
598.500000	4.772780  
599.000000	4.731598  
599.500000	4.648780  
600.000000	4.497000  

