PE FL                   SPECTRUM    ASCII       PEDS        1.60        
  -1
CDSRT#30.SP
02/03/22
01:42:05.00
02/03/22
01:52:17.00


300.000000
1









LS55
310.00
2.50
2.50
SCAN
1
20
100
100
0
10
0
0
0
1
7
ON
520 490 
1 0 0
#HDR
-1
-1
#GR
NM

0.00002384185791015625
0.0
200.000000
0.500000
201
8
130.282000
1.658000
#DATA
200.000000	1.658000   
200.500000	2.685000   
201.000000	3.164000   
201.500000	2.854000   
202.000000	2.370000   
202.500000	3.949000   
203.000000	4.088000   
203.500000	4.089000   
204.000000	4.745000   
204.500000	5.465000   
205.000000	4.926000   
205.500000	5.624000   
206.000000	5.564000   
206.500000	6.019000   
207.000000	5.919000   
207.500000	6.574000   
208.000000	7.293000   
208.500000	7.525000   
209.000000	8.095000   
209.500000	8.446999   
210.000000	8.364000   
210.500000	8.082000   
211.000000	7.928000   
211.500000	8.882999   
212.000000	9.222000   
212.500000	9.291000   
213.000000	9.807000   
213.500000	10.266000  
214.000000	9.650000   
214.500000	10.203000  
215.000000	10.030000  
215.500000	9.743000   
216.000000	10.171000  
216.500000	10.929000  
217.000000	10.914000  
217.500000	11.238000  
218.000000	11.509000  
218.500000	11.217000  
219.000000	11.464000  
219.500000	12.077000  
220.000000	11.662000  
220.500000	12.260000  
221.000000	12.894000  
221.500000	12.463000  
222.000000	12.618000  
222.500000	12.177000  
223.000000	12.174000  
223.500000	12.181000  
224.000000	11.852000  
224.500000	12.141000  
225.000000	12.819000  
225.500000	12.771000  
226.000000	12.536000  
226.500000	12.686000  
227.000000	12.448000  
227.500000	12.260000  
228.000000	12.166000  
228.500000	12.167000  
229.000000	12.186000  
229.500000	11.975000  
230.000000	11.822000  
230.500000	12.146000  
231.000000	12.013000  
231.500000	12.344000  
232.000000	12.540000  
232.500000	12.311000  
233.000000	12.540000  
233.500000	12.600000  
234.000000	12.541000  
234.500000	13.073000  
235.000000	13.708000  
235.500000	13.664000  
236.000000	13.777000  
236.500000	14.366000  
237.000000	14.562000  
237.500000	14.950000  
238.000000	15.327000  
238.500000	15.885000  
239.000000	16.224000  
239.500000	16.899000  
240.000000	17.172000  
240.500000	17.689000  
241.000000	17.830000  
241.500000	17.765000  
242.000000	18.500000  
242.500000	18.822000  
243.000000	19.240000  
243.500000	20.045000  
244.000000	20.594000  
244.500000	21.603000  
245.000000	22.012000  
245.500000	22.463000  
246.000000	22.517000  
246.500000	22.792000  
247.000000	22.808000  
247.500000	22.861000  
248.000000	23.297000  
248.500000	23.373000  
249.000000	23.713000  
249.500000	23.924000  
250.000000	24.969000  
250.500000	25.201000  
251.000000	25.786000  
251.500000	25.625000  
252.000000	26.119000  
252.500000	26.240000  
253.000000	26.551000  
253.500000	26.541000  
254.000000	26.903000  
254.500000	26.652000  
255.000000	27.421000  
255.500000	27.206000  
256.000000	27.879000  
256.500000	28.309000  
257.000000	27.835000  
257.500000	28.080000  
258.000000	28.056000  
258.500000	27.907000  
259.000000	27.758000  
259.500000	27.868000  
260.000000	27.930000  
260.500000	27.990000  
261.000000	27.955000  
261.500000	28.800000  
262.000000	28.673000  
262.500000	28.918000  
263.000000	29.755000  
263.500000	30.100000  
264.000000	29.935000  
264.500000	30.097000  
265.000000	29.886000  
265.500000	30.401000  
266.000000	30.313000  
266.500000	30.233000  
267.000000	30.943000  
267.500000	30.836000  
268.000000	31.058000  
268.500000	30.697000  
269.000000	30.782000  
269.500000	31.209000  
270.000000	31.215000  
270.500000	30.815000  
271.000000	30.978000  
271.500000	30.959000  
272.000000	30.932000  
272.500000	30.663000  
273.000000	30.974000  
273.500000	30.882000  
274.000000	31.069000  
274.500000	30.858000  
275.000000	30.927000  
275.500000	31.004000  
276.000000	30.600000  
276.500000	30.464000  
277.000000	30.288000  
277.500000	30.364000  
278.000000	30.067000  
278.500000	30.558000  
279.000000	30.267000  
279.500000	30.835000  
280.000000	30.582000  
280.500000	30.375000  
281.000000	30.542000  
281.500000	30.480000  
282.000000	30.616000  
282.500000	30.479000  
283.000000	30.212000  
283.500000	30.436000  
284.000000	30.292000  
284.500000	30.316000  
285.000000	30.506000  
285.500000	30.273000  
286.000000	30.583000  
286.500000	31.325000  
287.000000	32.365000  
287.500000	32.857000  
288.000000	33.812000  
288.500000	35.038000  
289.000000	36.321000  
289.500000	37.603000  
290.000000	39.204000  
290.500000	41.362000  
291.000000	44.222000  
291.500000	47.034000  
292.000000	50.683000  
292.500000	55.472000  
293.000000	61.376000  
293.500000	68.141000  
294.000000	75.188999  
294.500000	83.248000  
295.000000	91.818000  
295.500000	101.200000 
296.000000	110.199000 
296.500000	118.292000 
297.000000	123.283000 
297.500000	128.195000 
298.000000	130.282000 
298.500000	127.529000 
299.000000	123.045000 
299.500000	116.847000 
300.000000	108.582000 

