PE FL                   SPECTRUM    ASCII       PEDS        1.60        
  -1
CDSRT#36.SP
02/03/22
02:58:08.00
02/03/22
03:00:45.00


540.000000
1









LS55
280.00
5.00
5.00
SCAN
1
20
100
100
0
100
0
1
0
1
7
ON
600 310 
1 0 0
#HDR
-1
-1
#GR
NM

0.00002384185791015625
0.0
300.000000
0.500000
481
8
11.021083
0.258462
#DATA
300.000000	0.260000  
300.500000	0.258462  
301.000000	0.330136  
301.500000	0.475750  
302.000000	0.670757  
302.500000	0.922568  
303.000000	1.268545  
303.500000	1.693280  
304.000000	2.170037  
304.500000	2.704227  
305.000000	3.313772  
305.500000	3.944636  
306.000000	4.559045  
306.500000	5.159219  
307.000000	5.783984  
307.500000	6.424416  
308.000000	7.023469  
308.500000	7.572984  
309.000000	8.119742  
309.500000	8.630037  
310.000000	9.061666  
310.500000	9.394568  
311.000000	9.670606  
311.500000	9.886954  
312.000000	10.093113 
312.500000	10.276439 
313.000000	10.492704 
313.500000	10.699568 
314.000000	10.861742 
314.500000	10.902848 
315.000000	10.834962 
315.500000	10.741840 
316.000000	10.730931 
316.500000	10.759469 
317.000000	10.785871 
317.500000	10.837484 
318.000000	10.921977 
318.500000	10.996469 
319.000000	11.021083 
319.500000	11.004257 
320.000000	10.988310 
320.500000	11.003863 
321.000000	11.010553 
321.500000	10.964424 
322.000000	10.887469 
322.500000	10.834083 
323.000000	10.829916 
323.500000	10.792060 
324.000000	10.758810 
324.500000	10.747212 
325.000000	10.749848 
325.500000	10.665424 
326.000000	10.523143 
326.500000	10.360015 
327.000000	10.265916 
327.500000	10.221310 
328.000000	10.186909 
328.500000	10.137553 
329.000000	10.058234 
329.500000	9.939696  
330.000000	9.778015  
330.500000	9.628143  
331.000000	9.507780  
331.500000	9.415931  
332.000000	9.326189  
332.500000	9.265363  
333.000000	9.253765  
333.500000	9.204401  
334.000000	9.084219  
334.500000	8.911878  
335.000000	8.773015  
335.500000	8.678416  
336.000000	8.589878  
336.500000	8.505643  
337.000000	8.400310  
337.500000	8.307886  
338.000000	8.177477  
338.500000	8.077522  
339.000000	7.954878  
339.500000	7.881545  
340.000000	7.794484  
340.500000	7.705356  
341.000000	7.578356  
341.500000	7.520325  
342.000000	7.493265  
342.500000	7.453030  
343.000000	7.333621  
343.500000	7.236643  
344.000000	7.139348  
344.500000	7.002446  
345.000000	6.832196  
345.500000	6.751113  
346.000000	6.758628  
346.500000	6.796174  
347.000000	6.747075  
347.500000	6.630704  
348.000000	6.503560  
348.500000	6.447719  
349.000000	6.364636  
349.500000	6.293257  
350.000000	6.233674  
350.500000	6.241749  
351.000000	6.177628  
351.500000	6.047787  
352.000000	5.930166  
352.500000	5.880833  
353.000000	5.849560  
353.500000	5.817469  
354.000000	5.844969  
354.500000	5.896424  
355.000000	5.941681  
355.500000	5.919143  
356.000000	5.855575  
356.500000	5.741159  
357.000000	5.637742  
357.500000	5.566469  
358.000000	5.546136  
358.500000	5.484863  
359.000000	5.410962  
359.500000	5.367598  
360.000000	5.415500  
360.500000	5.461409  
361.000000	5.475287  
361.500000	5.468416  
362.000000	5.470196  
362.500000	5.426500  
363.000000	5.321371  
363.500000	5.236856  
364.000000	5.226772  
364.500000	5.281068  
365.000000	5.326954  
365.500000	5.328674  
366.000000	5.260863  
366.500000	5.149969  
367.000000	5.061189  
367.500000	5.069295  
368.000000	5.148272  
368.500000	5.204454  
369.000000	5.188878  
369.500000	5.130886  
370.000000	5.088348  
370.500000	5.089401  
371.000000	5.131954  
371.500000	5.193674  
372.000000	5.219734  
372.500000	5.180954  
373.000000	5.129393  
373.500000	5.149053  
374.000000	5.223893  
374.500000	5.287984  
375.000000	5.259893  
375.500000	5.216969  
376.000000	5.234628  
376.500000	5.322939  
377.000000	5.355931  
377.500000	5.301575  
378.000000	5.250257  
378.500000	5.253045  
379.000000	5.279750  
379.500000	5.269068  
380.000000	5.279613  
380.500000	5.325606  
381.000000	5.348992  
381.500000	5.323833  
382.000000	5.292522  
382.500000	5.329431  
383.000000	5.357621  
383.500000	5.372007  
384.000000	5.373833  
384.500000	5.406636  
385.000000	5.433507  
385.500000	5.433666  
386.000000	5.434325  
386.500000	5.408992  
387.000000	5.377378  
387.500000	5.342742  
388.000000	5.360780  
388.500000	5.381522  
389.000000	5.427333  
389.500000	5.456810  
390.000000	5.483659  
390.500000	5.487378  
391.000000	5.525439  
391.500000	5.583530  
392.000000	5.642863  
392.500000	5.653901  
393.000000	5.652075  
393.500000	5.659878  
394.000000	5.666227  
394.500000	5.652878  
395.000000	5.662174  
395.500000	5.706734  
396.000000	5.764265  
396.500000	5.754522  
397.000000	5.726333  
397.500000	5.714568  
398.000000	5.756416  
398.500000	5.803878  
399.000000	5.853575  
399.500000	5.884696  
400.000000	5.855242  
400.500000	5.809878  
401.000000	5.785795  
401.500000	5.816901  
402.000000	5.869598  
402.500000	5.934704  
403.000000	5.951924  
403.500000	5.944712  
404.000000	5.952128  
404.500000	6.019037  
405.000000	6.089196  
405.500000	6.122340  
406.000000	6.094143  
406.500000	6.074704  
407.000000	6.038598  
407.500000	6.046106  
408.000000	6.075075  
408.500000	6.127363  
409.000000	6.133393  
409.500000	6.166318  
410.000000	6.177863  
410.500000	6.206257  
411.000000	6.235749  
411.500000	6.306931  
412.000000	6.332643  
412.500000	6.352181  
413.000000	6.379409  
413.500000	6.459068  
414.000000	6.461393  
414.500000	6.388916  
415.000000	6.339477  
415.500000	6.355462  
416.000000	6.363954  
416.500000	6.389234  
417.000000	6.465507  
417.500000	6.576484  
418.000000	6.610946  
418.500000	6.584643  
419.000000	6.573363  
419.500000	6.615484  
420.000000	6.654969  
420.500000	6.696969  
421.000000	6.734939  
421.500000	6.751090  
422.000000	6.696310  
422.500000	6.633212  
423.000000	6.615159  
423.500000	6.686462  
424.000000	6.747431  
424.500000	6.771712  
425.000000	6.689931  
425.500000	6.597795  
426.000000	6.543030  
426.500000	6.519113  
427.000000	6.476871  
427.500000	6.381416  
428.000000	6.300674  
428.500000	6.253136  
429.000000	6.246053  
429.500000	6.188621  
430.000000	6.103431  
430.500000	6.051742  
431.000000	6.102242  
431.500000	6.179689  
432.000000	6.150553  
432.500000	6.052856  
433.000000	5.989098  
433.500000	5.991833  
434.000000	5.977772  
434.500000	5.936037  
435.000000	5.886946  
435.500000	5.862969  
436.000000	5.850666  
436.500000	5.859674  
437.000000	5.850575  
437.500000	5.809992  
438.000000	5.763424  
438.500000	5.748803  
439.000000	5.754015  
439.500000	5.723954  
440.000000	5.664893  
440.500000	5.632212  
441.000000	5.642909  
441.500000	5.634856  
442.000000	5.578712  
442.500000	5.513121  
443.000000	5.493090  
443.500000	5.502287  
444.000000	5.480575  
444.500000	5.414568  
445.000000	5.370325  
445.500000	5.361696  
446.000000	5.366083  
446.500000	5.316757  
447.000000	5.243909  
447.500000	5.194143  
448.000000	5.172575  
448.500000	5.130068  
449.000000	5.105318  
449.500000	5.126530  
450.000000	5.135750  
450.500000	5.068621  
451.000000	4.971772  
451.500000	4.916401  
452.000000	4.876825  
452.500000	4.812174  
453.000000	4.729916  
453.500000	4.682106  
454.000000	4.657378  
454.500000	4.659598  
455.000000	4.636227  
455.500000	4.579984  
456.000000	4.541659  
456.500000	4.547916  
457.000000	4.565719  
457.500000	4.515772  
458.000000	4.442962  
458.500000	4.366848  
459.000000	4.359287  
459.500000	4.402272  
460.000000	4.495212  
460.500000	4.524939  
461.000000	4.474181  
461.500000	4.365575  
462.000000	4.312787  
462.500000	4.284106  
463.000000	4.296196  
463.500000	4.254734  
464.000000	4.207121  
464.500000	4.121015  
465.000000	4.093696  
465.500000	4.075030  
466.000000	4.082106  
466.500000	4.045500  
467.000000	4.007295  
467.500000	3.971840  
468.000000	3.982431  
468.500000	3.999681  
469.000000	4.020848  
469.500000	4.029916  
470.000000	4.033325  
470.500000	4.016787  
471.000000	4.008984  
471.500000	3.990727  
472.000000	3.962098  
472.500000	3.918840  
473.000000	3.901462  
473.500000	3.907999  
474.000000	3.881280  
474.500000	3.825265  
475.000000	3.789030  
475.500000	3.800454  
476.000000	3.822992  
476.500000	3.849492  
477.000000	3.871356  
477.500000	3.887204  
478.000000	3.848500  
478.500000	3.772659  
479.000000	3.721166  
479.500000	3.749507  
480.000000	3.823098  
480.500000	3.875931  
481.000000	3.881128  
481.500000	3.901886  
482.000000	3.955250  
482.500000	4.033106  
483.000000	4.109090  
483.500000	4.169424  
484.000000	4.161583  
484.500000	4.103863  
485.000000	4.027568  
485.500000	4.001553  
486.000000	3.954795  
486.500000	3.913181  
487.000000	3.857916  
487.500000	3.827143  
488.000000	3.753272  
488.500000	3.656598  
489.000000	3.573924  
489.500000	3.537780  
490.000000	3.521106  
490.500000	3.490886  
491.000000	3.458310  
491.500000	3.422416  
492.000000	3.405613  
492.500000	3.365621  
493.000000	3.297174  
493.500000	3.230674  
494.000000	3.216174  
494.500000	3.222371  
495.000000	3.198825  
495.500000	3.126674  
496.000000	3.070765  
496.500000	3.014977  
497.000000	2.971469  
497.500000	2.917227  
498.000000	2.889469  
498.500000	2.891659  
499.000000	2.892469  
499.500000	2.863174  
500.000000	2.805803  
500.500000	2.758689  
501.000000	2.731303  
501.500000	2.719553  
502.000000	2.702712  
502.500000	2.697189  
503.000000	2.695113  
503.500000	2.658696  
504.000000	2.613000  
504.500000	2.579628  
505.000000	2.586613  
505.500000	2.584583  
506.000000	2.542780  
506.500000	2.476121  
507.000000	2.419295  
507.500000	2.383666  
508.000000	2.367727  
508.500000	2.357787  
509.000000	2.343545  
509.500000	2.327765  
510.000000	2.331840  
510.500000	2.352840  
511.000000	2.363090  
511.500000	2.333393  
512.000000	2.287484  
512.500000	2.241045  
513.000000	2.238992  
513.500000	2.261280  
514.000000	2.285946  
514.500000	2.251969  
515.000000	2.198469  
515.500000	2.143553  
516.000000	2.121848  
516.500000	2.117553  
517.000000	2.142583  
517.500000	2.160727  
518.000000	2.156310  
518.500000	2.125878  
519.000000	2.093007  
519.500000	2.059090  
520.000000	2.025310  
520.500000	2.005121  
521.000000	2.019204  
521.500000	2.020121  
522.000000	1.990962  
522.500000	1.959765  
523.000000	1.964022  
523.500000	1.989962  
524.000000	1.982189  
524.500000	1.943053  
525.000000	1.902787  
525.500000	1.900318  
526.000000	1.930159  
526.500000	1.981257  
527.000000	1.994750  
527.500000	1.986984  
528.000000	1.960825  
528.500000	1.931075  
529.000000	1.900106  
529.500000	1.885234  
530.000000	1.897204  
530.500000	1.903727  
531.000000	1.885045  
531.500000	1.851530  
532.000000	1.843681  
532.500000	1.839022  
533.000000	1.820878  
533.500000	1.768848  
534.000000	1.717015  
534.500000	1.685818  
535.000000	1.664424  
535.500000	1.653037  
536.000000	1.643075  
536.500000	1.642310  
537.000000	1.621060  
537.500000	1.603136  
538.000000	1.589204  
538.500000	1.586659  
539.000000	1.552946  
539.500000	1.488030  
540.000000	1.396000  

