PE FL                   SPECTRUM    ASCII       PEDS        1.60        
  -1
CDSRT#47.SP
02/03/22
03:27:52.00
02/03/22
03:29:00.00


371.500000
1









LS55
520.00
5.00
5.00
SCAN
1
20
100
100
0
100
0
1
0
1
7
ON
407 520 
1 0 0
#HDR
-1
-1
#GR
NM

0.00002384185791015625
0.0
270.000000
0.500000
204
8
1.300719
0.806106
#DATA
270.000000	0.968999 
270.500000	0.849212 
271.000000	0.806106 
271.500000	0.833477 
272.000000	0.867931 
272.500000	0.874833 
273.000000	0.863386 
273.500000	0.848946 
274.000000	0.843333 
274.500000	0.850681 
275.000000	0.861871 
275.500000	0.870257 
276.000000	0.870969 
276.500000	0.863242 
277.000000	0.864272 
277.500000	0.879287 
278.000000	0.898598 
278.500000	0.897318 
279.000000	0.879136 
279.500000	0.866037 
280.000000	0.870189 
280.500000	0.882613 
281.000000	0.892333 
281.500000	0.908795 
282.000000	0.918356 
282.500000	0.919393 
283.000000	0.915992 
283.500000	0.926568 
284.000000	0.949272 
284.500000	0.972174 
285.000000	1.001083 
285.500000	1.063696 
286.000000	1.161598 
286.500000	1.242401 
287.000000	1.285310 
287.500000	1.300719 
288.000000	1.295121 
288.500000	1.243416 
289.000000	1.148075 
289.500000	1.048431 
290.000000	0.981712 
290.500000	0.941022 
291.000000	0.919204 
291.500000	0.907939 
292.000000	0.893310 
292.500000	0.877143 
293.000000	0.872492 
293.500000	0.878136 
294.000000	0.880696 
294.500000	0.889022 
295.000000	0.903295 
295.500000	0.908295 
296.000000	0.881446 
296.500000	0.850446 
297.000000	0.852143 
297.500000	0.879719 
298.000000	0.898000 
298.500000	0.897909 
299.000000	0.894030 
299.500000	0.891189 
300.000000	0.884068 
300.500000	0.884575 
301.000000	0.895113 
301.500000	0.902265 
302.000000	0.897318 
302.500000	0.882530 
303.000000	0.869946 
303.500000	0.859992 
304.000000	0.861613 
304.500000	0.868515 
305.000000	0.877272 
305.500000	0.873840 
306.000000	0.873659 
306.500000	0.881265 
307.000000	0.895704 
307.500000	0.919083 
308.000000	0.931250 
308.500000	0.922848 
309.000000	0.906401 
309.500000	0.909704 
310.000000	0.918007 
310.500000	0.923204 
311.000000	0.921068 
311.500000	0.922810 
312.000000	0.917212 
312.500000	0.902954 
313.000000	0.894484 
313.500000	0.898681 
314.000000	0.913674 
314.500000	0.922734 
315.000000	0.930416 
315.500000	0.923280 
316.000000	0.921848 
316.500000	0.932939 
317.000000	0.953803 
317.500000	0.969143 
318.000000	0.973068 
318.500000	0.961666 
319.000000	0.947416 
319.500000	0.936962 
320.000000	0.920795 
320.500000	0.910143 
321.000000	0.904848 
321.500000	0.917757 
322.000000	0.924053 
322.500000	0.921022 
323.000000	0.907757 
323.500000	0.904909 
324.000000	0.908893 
324.500000	0.918727 
325.000000	0.920833 
325.500000	0.911666 
326.000000	0.908196 
326.500000	0.904962 
327.000000	0.905712 
327.500000	0.909590 
328.000000	0.919568 
328.500000	0.931560 
329.000000	0.927734 
329.500000	0.922734 
330.000000	0.927590 
330.500000	0.947719 
331.000000	0.948515 
331.500000	0.938825 
332.000000	0.924818 
332.500000	0.931249 
333.000000	0.935303 
333.500000	0.928340 
334.000000	0.904583 
334.500000	0.893348 
335.000000	0.895931 
335.500000	0.912856 
336.000000	0.925999 
336.500000	0.932863 
337.000000	0.935871 
337.500000	0.939840 
338.000000	0.935568 
338.500000	0.921856 
339.000000	0.904681 
339.500000	0.899909 
340.000000	0.908424 
340.500000	0.924651 
341.000000	0.940757 
341.500000	0.958999 
342.000000	0.963825 
342.500000	0.949090 
343.000000	0.924939 
343.500000	0.921454 
344.000000	0.923954 
344.500000	0.925310 
345.000000	0.919999 
345.500000	0.929530 
346.000000	0.938333 
346.500000	0.940212 
347.000000	0.937522 
347.500000	0.952871 
348.000000	0.966833 
348.500000	0.965371 
349.000000	0.956590 
349.500000	0.953553 
350.000000	0.967030 
350.500000	0.973499 
351.000000	0.967712 
351.500000	0.951128 
352.000000	0.957083 
352.500000	0.971166 
353.000000	0.982454 
353.500000	0.970500 
354.000000	0.968439 
354.500000	0.968992 
355.000000	0.962250 
355.500000	0.939863 
356.000000	0.937136 
356.500000	0.960424 
357.000000	0.987310 
357.500000	0.987825 
358.000000	0.974568 
358.500000	0.968325 
359.000000	0.994545 
359.500000	1.029174 
360.000000	1.048363 
360.500000	1.028454 
361.000000	1.007772 
361.500000	0.992924 
362.000000	1.002340 
362.500000	1.009742 
363.000000	1.016340 
363.500000	1.005780 
364.000000	0.988310 
364.500000	0.966310 
365.000000	0.959696 
365.500000	0.972037 
366.000000	1.007159 
366.500000	1.036068 
367.000000	1.043734 
367.500000	1.031098 
368.000000	1.025916 
368.500000	1.025871 
369.000000	1.029340 
369.500000	1.020037 
370.000000	1.012295 
370.500000	1.011257 
371.000000	1.027454 
371.500000	1.061000 

