PE FL                   SPECTRUM    ASCII       PEDS        1.60        
  -1
CDSRT#17.SP
02/03/22
01:06:54.00
02/03/22
01:09:33.00


530.000000
1









LS55
560.00
5.00
5.00
SCAN
1
20
100
100
0
100
0
0
0
1
7
ON
700 650 
1 0 0
#HDR
-1
-1
#GR
NM

0.00002384185791015625
0.0
300.000000
0.500000
461
8
21.907166
1.292924
#DATA
300.000000	11.839000 
300.500000	12.025234 
301.000000	12.237590 
301.500000	12.473545 
302.000000	12.731348 
302.500000	13.008878 
303.000000	13.285060 
303.500000	13.504575 
304.000000	13.596863 
304.500000	13.619590 
305.000000	13.663750 
305.500000	13.811000 
306.000000	13.965621 
306.500000	14.057681 
307.000000	14.120113 
307.500000	14.217234 
308.000000	14.355106 
308.500000	14.459393 
309.000000	14.554772 
309.500000	14.582659 
310.000000	14.581553 
310.500000	14.582719 
311.000000	14.681250 
311.500000	14.783924 
312.000000	14.825181 
312.500000	14.821378 
313.000000	14.800363 
313.500000	14.769242 
314.000000	14.733803 
314.500000	14.710212 
315.000000	14.714924 
315.500000	14.723325 
316.000000	14.723962 
316.500000	14.750181 
317.000000	14.822598 
317.500000	14.923272 
318.000000	15.032113 
318.500000	15.115962 
319.000000	15.142431 
319.500000	15.100901 
320.000000	15.048083 
320.500000	15.055333 
321.000000	15.138575 
321.500000	15.192689 
322.000000	15.214515 
322.500000	15.235030 
323.000000	15.248219 
323.500000	15.236265 
324.000000	15.269295 
324.500000	15.373454 
325.000000	15.505280 
325.500000	15.555356 
326.000000	15.524234 
326.500000	15.529931 
327.000000	15.656893 
327.500000	15.788219 
328.000000	15.811272 
328.500000	15.771068 
329.000000	15.836409 
329.500000	16.002075 
330.000000	16.092340 
330.500000	16.101287 
331.000000	16.105356 
331.500000	16.158356 
332.000000	16.186643 
332.500000	16.199386 
333.000000	16.234424 
333.500000	16.351977 
334.000000	16.487931 
334.500000	16.617681 
335.000000	16.694121 
335.500000	16.681757 
336.000000	16.673333 
336.500000	16.744469 
337.000000	16.914765 
337.500000	17.044128 
338.000000	17.111931 
338.500000	17.129462 
339.000000	17.186734 
339.500000	17.249318 
340.000000	17.287984 
340.500000	17.320825 
341.000000	17.330280 
341.500000	17.428787 
342.000000	17.521886 
342.500000	17.665325 
343.000000	17.749992 
343.500000	17.869810 
344.000000	17.961651 
344.500000	18.035386 
345.000000	18.070439 
345.500000	18.114681 
346.000000	18.205946 
346.500000	18.248477 
347.000000	18.286356 
347.500000	18.337318 
348.000000	18.516348 
348.500000	18.734833 
349.000000	18.875977 
349.500000	18.924287 
350.000000	18.986015 
350.500000	19.092704 
351.000000	19.174250 
351.500000	19.233159 
352.000000	19.350500 
352.500000	19.527303 
353.000000	19.712545 
353.500000	19.746090 
354.000000	19.763666 
354.500000	19.802371 
355.000000	19.946803 
355.500000	20.051393 
356.000000	20.166257 
356.500000	20.265143 
357.000000	20.415075 
357.500000	20.530083 
358.000000	20.586340 
358.500000	20.683181 
359.000000	20.797598 
359.500000	20.896022 
360.000000	20.938696 
360.500000	21.043500 
361.000000	21.245265 
361.500000	21.437106 
362.000000	21.470272 
362.500000	21.393060 
363.000000	21.363560 
363.500000	21.438015 
364.000000	21.584446 
364.500000	21.716204 
365.000000	21.764628 
365.500000	21.781946 
366.000000	21.801696 
366.500000	21.874734 
367.000000	21.907166 
367.500000	21.875871 
368.000000	21.806727 
368.500000	21.722386 
369.000000	21.615287 
369.500000	21.485856 
370.000000	21.407659 
370.500000	21.361378 
371.000000	21.344303 
371.500000	21.285537 
372.000000	21.233143 
372.500000	21.171416 
373.000000	21.062325 
373.500000	20.846287 
374.000000	20.594583 
374.500000	20.392409 
375.000000	20.229333 
375.500000	20.044136 
376.000000	19.841606 
376.500000	19.671515 
377.000000	19.502469 
377.500000	19.340606 
378.000000	19.163833 
378.500000	19.033696 
379.000000	18.886734 
379.500000	18.720393 
380.000000	18.487750 
380.500000	18.278583 
381.000000	18.091196 
381.500000	17.910575 
382.000000	17.656454 
382.500000	17.398674 
383.000000	17.235628 
383.500000	17.164931 
384.000000	17.057848 
384.500000	16.841416 
385.000000	16.564439 
385.500000	16.317613 
386.000000	16.142068 
386.500000	15.983371 
387.000000	15.839696 
387.500000	15.692409 
388.000000	15.553484 
388.500000	15.338598 
389.000000	15.099924 
389.500000	14.899212 
390.000000	14.806704 
390.500000	14.698931 
391.000000	14.535666 
391.500000	14.337083 
392.000000	14.214492 
392.500000	14.122333 
393.000000	14.031340 
393.500000	13.879606 
394.000000	13.697659 
394.500000	13.511250 
395.000000	13.332780 
395.500000	13.152310 
396.000000	12.987719 
396.500000	12.873121 
397.000000	12.781431 
397.500000	12.664053 
398.000000	12.496810 
398.500000	12.330280 
399.000000	12.163340 
399.500000	11.983371 
400.000000	11.802848 
400.500000	11.652628 
401.000000	11.515772 
401.500000	11.359431 
402.000000	11.187492 
402.500000	11.029954 
403.000000	10.907750 
403.500000	10.802431 
404.000000	10.706977 
404.500000	10.559340 
405.000000	10.406272 
405.500000	10.265045 
406.000000	10.172030 
406.500000	10.066159 
407.000000	9.915666  
407.500000	9.721803  
408.000000	9.546962  
408.500000	9.381871  
409.000000	9.233810  
409.500000	9.057378  
410.000000	8.833742  
410.500000	8.595492  
411.000000	8.420613  
411.500000	8.315106  
412.000000	8.207037  
412.500000	8.040553  
413.000000	7.830075  
413.500000	7.668174  
414.000000	7.553992  
414.500000	7.482583  
415.000000	7.354628  
415.500000	7.183568  
416.000000	6.971712  
416.500000	6.797681  
417.000000	6.654583  
417.500000	6.560651  
418.000000	6.462643  
418.500000	6.329931  
419.000000	6.154159  
419.500000	6.004363  
420.000000	5.887507  
420.500000	5.770113  
421.000000	5.659750  
421.500000	5.589075  
422.000000	5.524606  
422.500000	5.415136  
423.000000	5.276583  
423.500000	5.161954  
424.000000	5.049159  
424.500000	4.910689  
425.000000	4.747356  
425.500000	4.593787  
426.000000	4.442818  
426.500000	4.300053  
427.000000	4.178734  
427.500000	4.084257  
428.000000	3.986143  
428.500000	3.869727  
429.000000	3.758886  
429.500000	3.657560  
430.000000	3.576000  
430.500000	3.482196  
431.000000	3.368333  
431.500000	3.240386  
432.000000	3.138272  
432.500000	3.074068  
433.000000	3.025583  
433.500000	2.959431  
434.000000	2.883378  
434.500000	2.816439  
435.000000	2.759863  
435.500000	2.718621  
436.000000	2.703537  
436.500000	2.687386  
437.000000	2.637446  
437.500000	2.549984  
438.000000	2.462424  
438.500000	2.397530  
439.000000	2.360492  
439.500000	2.332333  
440.000000	2.310287  
440.500000	2.277386  
441.000000	2.239083  
441.500000	2.201469  
442.000000	2.180666  
442.500000	2.152537  
443.000000	2.124469  
443.500000	2.097765  
444.000000	2.077666  
444.500000	2.051068  
445.000000	2.019530  
445.500000	1.996075  
446.000000	1.977977  
446.500000	1.961833  
447.000000	1.956265  
447.500000	1.953310  
448.000000	1.940931  
448.500000	1.915712  
449.000000	1.889174  
449.500000	1.864174  
450.000000	1.843500  
450.500000	1.818666  
451.000000	1.797484  
451.500000	1.777863  
452.000000	1.764575  
452.500000	1.757068  
453.000000	1.755113  
453.500000	1.743719  
454.000000	1.734181  
454.500000	1.715772  
455.000000	1.685083  
455.500000	1.652272  
456.000000	1.628522  
456.500000	1.635484  
457.000000	1.647712  
457.500000	1.669272  
458.000000	1.666083  
458.500000	1.648954  
459.000000	1.595772  
459.500000	1.564939  
460.000000	1.575280  
460.500000	1.615636  
461.000000	1.621363  
461.500000	1.595416  
462.000000	1.579977  
462.500000	1.609462  
463.000000	1.637992  
463.500000	1.639174  
464.000000	1.629689  
464.500000	1.642818  
465.000000	1.660613  
465.500000	1.664212  
466.000000	1.648075  
466.500000	1.629863  
467.000000	1.612196  
467.500000	1.595303  
468.000000	1.576492  
468.500000	1.561424  
469.000000	1.542143  
469.500000	1.527257  
470.000000	1.506795  
470.500000	1.490840  
471.000000	1.473931  
471.500000	1.470045  
472.000000	1.460113  
472.500000	1.440507  
473.000000	1.408416  
473.500000	1.393780  
474.000000	1.402325  
474.500000	1.412113  
475.000000	1.404037  
475.500000	1.390515  
476.000000	1.384000  
476.500000	1.399727  
477.000000	1.424659  
477.500000	1.448886  
478.000000	1.438227  
478.500000	1.399280  
479.000000	1.358234  
479.500000	1.354568  
480.000000	1.371181  
480.500000	1.382318  
481.000000	1.375075  
481.500000	1.359454  
482.000000	1.358295  
482.500000	1.361939  
483.000000	1.367090  
483.500000	1.358492  
484.000000	1.348621  
484.500000	1.337537  
485.000000	1.347037  
485.500000	1.359954  
486.000000	1.369840  
486.500000	1.355727  
487.000000	1.343757  
487.500000	1.347469  
488.000000	1.367363  
488.500000	1.366681  
489.000000	1.345734  
489.500000	1.333280  
490.000000	1.339045  
490.500000	1.349212  
491.000000	1.340787  
491.500000	1.331621  
492.000000	1.338924  
492.500000	1.351522  
493.000000	1.335674  
493.500000	1.306196  
494.000000	1.292924  
494.500000	1.311257  
495.000000	1.346128  
495.500000	1.366659  
496.000000	1.365333  
496.500000	1.353371  
497.000000	1.351780  
497.500000	1.368984  
498.000000	1.391136  
498.500000	1.384818  
499.000000	1.365462  
499.500000	1.363295  
500.000000	1.391674  
500.500000	1.407704  
501.000000	1.400954  
501.500000	1.383000  
502.000000	1.394136  
502.500000	1.406696  
503.000000	1.404242  
503.500000	1.370371  
504.000000	1.346166  
504.500000	1.346568  
505.000000	1.369530  
505.500000	1.392454  
506.000000	1.400583  
506.500000	1.412037  
507.000000	1.417462  
507.500000	1.421083  
508.000000	1.403856  
508.500000	1.397750  
509.000000	1.406863  
509.500000	1.453204  
510.000000	1.485727  
510.500000	1.480651  
511.000000	1.453712  
511.500000	1.450575  
512.000000	1.470818  
512.500000	1.473803  
513.000000	1.466477  
513.500000	1.492689  
514.000000	1.545681  
514.500000	1.571727  
515.000000	1.540924  
515.500000	1.513833  
516.000000	1.519696  
516.500000	1.553386  
517.000000	1.557750  
517.500000	1.563878  
518.000000	1.581583  
518.500000	1.617007  
519.000000	1.649022  
519.500000	1.680787  
520.000000	1.707848  
520.500000	1.713143  
521.000000	1.700878  
521.500000	1.702727  
522.000000	1.722060  
522.500000	1.744219  
523.000000	1.769242  
523.500000	1.809234  
524.000000	1.846750  
524.500000	1.842378  
525.000000	1.803742  
525.500000	1.786719  
526.000000	1.840265  
526.500000	1.915401  
527.000000	1.972674  
527.500000	1.983818  
528.000000	1.998424  
528.500000	2.039189  
529.000000	2.107181  
529.500000	2.153795  
530.000000	2.172000  

