PE FL                   SPECTRUM    ASCII       PEDS        1.60        
  -1
CDSRT#16.SP
02/03/22
01:04:37.00
02/03/22
01:06:14.00


650.000000
1









LS55
700.00
5.00
5.00
SCAN
1
20
100
100
0
100
0
0
0
1
7
ON
580 550 
1 0 0
#HDR
-1
-1
#GR
NM

0.00002384185791015625
0.0
500.000000
0.500000
301
8
0.626704
0.076553
#DATA
500.000000	0.265000 
500.500000	0.295454 
501.000000	0.317075 
501.500000	0.330333 
502.000000	0.334409 
502.500000	0.322424 
503.000000	0.302765 
503.500000	0.296590 
504.000000	0.306446 
504.500000	0.308000 
505.000000	0.299886 
505.500000	0.289007 
506.000000	0.286431 
506.500000	0.281621 
507.000000	0.279007 
507.500000	0.279530 
508.000000	0.279356 
508.500000	0.278015 
509.000000	0.279606 
509.500000	0.289492 
510.000000	0.290075 
510.500000	0.285022 
511.000000	0.280583 
511.500000	0.283227 
512.000000	0.286636 
512.500000	0.284363 
513.000000	0.277651 
513.500000	0.271537 
514.000000	0.269500 
514.500000	0.269325 
515.000000	0.271090 
515.500000	0.279045 
516.000000	0.281318 
516.500000	0.278749 
517.000000	0.266825 
517.500000	0.259696 
518.000000	0.253810 
518.500000	0.246371 
519.000000	0.238787 
519.500000	0.240931 
520.000000	0.250537 
520.500000	0.253446 
521.000000	0.250295 
521.500000	0.240053 
522.000000	0.230924 
522.500000	0.217810 
523.000000	0.215484 
523.500000	0.223189 
524.000000	0.232143 
524.500000	0.227340 
525.000000	0.217606 
525.500000	0.210068 
526.000000	0.205060 
526.500000	0.207045 
527.000000	0.214742 
527.500000	0.220545 
528.000000	0.213666 
528.500000	0.203916 
529.000000	0.199257 
529.500000	0.194901 
530.000000	0.191098 
530.500000	0.195295 
531.000000	0.205818 
531.500000	0.212340 
532.000000	0.212219 
532.500000	0.206984 
533.000000	0.201060 
533.500000	0.197257 
534.000000	0.196643 
534.500000	0.197265 
535.000000	0.198636 
535.500000	0.191659 
536.000000	0.185825 
536.500000	0.174856 
537.000000	0.170666 
537.500000	0.172825 
538.000000	0.191303 
538.500000	0.212575 
539.000000	0.231037 
539.500000	0.236628 
540.000000	0.236598 
540.500000	0.237992 
541.000000	0.243803 
541.500000	0.253318 
542.000000	0.256007 
542.500000	0.251863 
543.000000	0.250378 
543.500000	0.257325 
544.000000	0.268833 
544.500000	0.286954 
545.000000	0.309977 
545.500000	0.319500 
546.000000	0.309333 
546.500000	0.297484 
547.000000	0.311386 
547.500000	0.332583 
548.000000	0.343871 
548.500000	0.340484 
549.000000	0.345636 
549.500000	0.364924 
550.000000	0.395113 
550.500000	0.421166 
551.000000	0.435128 
551.500000	0.435295 
552.000000	0.426340 
552.500000	0.435916 
553.000000	0.465613 
553.500000	0.509696 
554.000000	0.527356 
554.500000	0.528840 
555.000000	0.525575 
555.500000	0.543643 
556.000000	0.559560 
556.500000	0.578371 
557.000000	0.589522 
557.500000	0.602098 
558.000000	0.596083 
558.500000	0.582704 
559.000000	0.568553 
559.500000	0.571234 
560.000000	0.578121 
560.500000	0.588749 
561.000000	0.602856 
561.500000	0.618181 
562.000000	0.626704 
562.500000	0.625689 
563.000000	0.624886 
563.500000	0.621416 
564.000000	0.616613 
564.500000	0.610954 
565.000000	0.618060 
565.500000	0.623803 
566.000000	0.624409 
566.500000	0.614825 
567.000000	0.616545 
567.500000	0.612553 
568.000000	0.604090 
568.500000	0.586598 
569.000000	0.578537 
569.500000	0.564196 
570.000000	0.549825 
570.500000	0.541401 
571.000000	0.536045 
571.500000	0.516878 
572.000000	0.488863 
572.500000	0.470621 
573.000000	0.464325 
573.500000	0.449022 
574.000000	0.422704 
574.500000	0.401992 
575.000000	0.381931 
575.500000	0.364727 
576.000000	0.348136 
576.500000	0.338159 
577.000000	0.328083 
577.500000	0.318977 
578.000000	0.306303 
578.500000	0.296886 
579.000000	0.283477 
579.500000	0.266696 
580.000000	0.252522 
580.500000	0.243401 
581.000000	0.238954 
581.500000	0.236545 
582.000000	0.231659 
582.500000	0.230553 
583.000000	0.228484 
583.500000	0.228265 
584.000000	0.223833 
584.500000	0.221901 
585.000000	0.219075 
585.500000	0.215901 
586.000000	0.196719 
586.500000	0.172757 
587.000000	0.155030 
587.500000	0.152204 
588.000000	0.152643 
588.500000	0.145522 
589.000000	0.139136 
589.500000	0.138098 
590.000000	0.145045 
590.500000	0.142022 
591.000000	0.132704 
591.500000	0.114704 
592.000000	0.103787 
592.500000	0.102136 
593.000000	0.109984 
593.500000	0.120037 
594.000000	0.128606 
594.500000	0.141212 
595.000000	0.147977 
595.500000	0.143613 
596.000000	0.120742 
596.500000	0.100272 
597.000000	0.097166 
597.500000	0.113068 
598.000000	0.123431 
598.500000	0.116303 
599.000000	0.106090 
599.500000	0.115416 
600.000000	0.131310 
600.500000	0.132613 
601.000000	0.119318 
601.500000	0.115954 
602.000000	0.122219 
602.500000	0.133856 
603.000000	0.136840 
603.500000	0.143257 
604.000000	0.147378 
604.500000	0.151643 
605.000000	0.138916 
605.500000	0.111878 
606.000000	0.082121 
606.500000	0.076553 
607.000000	0.095954 
607.500000	0.122893 
608.000000	0.142250 
608.500000	0.143143 
609.000000	0.136750 
609.500000	0.127030 
610.000000	0.125825 
610.500000	0.135409 
611.000000	0.150568 
611.500000	0.149424 
612.000000	0.130151 
612.500000	0.104007 
613.000000	0.091060 
613.500000	0.101931 
614.000000	0.120113 
614.500000	0.124439 
615.000000	0.107454 
615.500000	0.094689 
616.000000	0.105651 
616.500000	0.130598 
617.000000	0.138674 
617.500000	0.126946 
618.000000	0.108196 
618.500000	0.097371 
619.000000	0.104537 
619.500000	0.126462 
620.000000	0.143492 
620.500000	0.148333 
621.000000	0.142530 
621.500000	0.140371 
622.000000	0.136712 
622.500000	0.134257 
623.000000	0.129803 
623.500000	0.127946 
624.000000	0.121128 
624.500000	0.117712 
625.000000	0.117992 
625.500000	0.122325 
626.000000	0.125000 
626.500000	0.133795 
627.000000	0.138734 
627.500000	0.135143 
628.000000	0.120984 
628.500000	0.128833 
629.000000	0.150068 
629.500000	0.169128 
630.000000	0.158803 
630.500000	0.144257 
631.000000	0.135371 
631.500000	0.137553 
632.000000	0.138500 
632.500000	0.138560 
633.000000	0.133522 
633.500000	0.131166 
634.000000	0.145886 
634.500000	0.161143 
635.000000	0.160053 
635.500000	0.137015 
636.000000	0.122840 
636.500000	0.128628 
637.000000	0.152128 
637.500000	0.171909 
638.000000	0.179575 
638.500000	0.166151 
639.000000	0.151984 
639.500000	0.145287 
640.000000	0.151106 
640.500000	0.149159 
641.000000	0.142825 
641.500000	0.131621 
642.000000	0.139037 
642.500000	0.161378 
643.000000	0.191712 
643.500000	0.198545 
644.000000	0.186537 
644.500000	0.177151 
645.000000	0.175719 
645.500000	0.168659 
646.000000	0.162500 
646.500000	0.167878 
647.000000	0.174962 
647.500000	0.184295 
648.000000	0.202136 
648.500000	0.234553 
649.000000	0.246318 
649.500000	0.215159 
650.000000	0.155000 

