PE FL                   SPECTRUM    ASCII       PEDS        1.60        
  -1
CDSRT#29.SP
02/03/22
01:39:07.00
02/03/22
01:41:35.00


490.000000
1









LS55
520.00
5.00
5.00
SCAN
1
20
100
100
0
100
0
0
0
1
7
ON
310 290 
1 0 0
#HDR
-1
-1
#GR
NM

0.00002384185791015625
0.0
270.000000
0.500000
441
8
39.750227
2.642878
#DATA
270.000000	12.890000 
270.500000	12.788333 
271.000000	12.733174 
271.500000	12.709295 
272.000000	12.713348 
272.500000	12.710833 
273.000000	12.624984 
273.500000	12.459318 
274.000000	12.312492 
274.500000	12.256583 
275.000000	12.271045 
275.500000	12.239969 
276.000000	12.114530 
276.500000	11.926340 
277.000000	11.788893 
277.500000	11.804068 
278.000000	11.913780 
278.500000	11.945530 
279.000000	11.853257 
279.500000	11.694787 
280.000000	11.571848 
280.500000	11.513507 
281.000000	11.523886 
281.500000	11.545666 
282.000000	11.542083 
282.500000	11.527924 
283.000000	11.564742 
283.500000	11.656303 
284.000000	11.703727 
284.500000	11.709098 
285.000000	11.670931 
285.500000	11.633416 
286.000000	11.596674 
286.500000	11.673128 
287.000000	11.845833 
287.500000	12.016575 
288.000000	12.025765 
288.500000	11.959916 
289.000000	11.962007 
289.500000	12.101371 
290.000000	12.269439 
290.500000	12.423780 
291.000000	12.544659 
291.500000	12.680984 
292.000000	12.844545 
292.500000	13.050893 
293.000000	13.280484 
293.500000	13.513939 
294.000000	13.733590 
294.500000	14.041303 
295.000000	14.465575 
295.500000	14.964462 
296.000000	15.445068 
296.500000	15.912030 
297.000000	16.334924 
297.500000	16.781757 
298.000000	17.312628 
298.500000	17.943507 
299.000000	18.605583 
299.500000	19.194515 
300.000000	19.753537 
300.500000	20.362219 
301.000000	20.957969 
301.500000	21.466333 
302.000000	21.886909 
302.500000	22.330287 
303.000000	22.776348 
303.500000	23.189636 
304.000000	23.476765 
304.500000	23.728181 
305.000000	23.952696 
305.500000	24.206856 
306.000000	24.445992 
306.500000	24.666181 
307.000000	24.828477 
307.500000	25.050583 
308.000000	25.307969 
308.500000	25.536886 
309.000000	25.627780 
309.500000	25.641166 
310.000000	25.691303 
310.500000	25.805681 
311.000000	25.909765 
311.500000	25.962689 
312.000000	25.980454 
312.500000	25.968295 
313.000000	25.946234 
313.500000	25.929674 
314.000000	25.906068 
314.500000	25.887954 
315.000000	25.923000 
315.500000	26.080424 
316.000000	26.239409 
316.500000	26.296068 
317.000000	26.322060 
317.500000	26.426628 
318.000000	26.550204 
318.500000	26.568621 
319.000000	26.554439 
319.500000	26.543606 
320.000000	26.594045 
320.500000	26.663530 
321.000000	26.815060 
321.500000	26.950916 
322.000000	26.998393 
322.500000	26.990666 
323.000000	27.049151 
323.500000	27.185348 
324.000000	27.257287 
324.500000	27.262136 
325.000000	27.311409 
325.500000	27.476696 
326.000000	27.601636 
326.500000	27.616515 
327.000000	27.674606 
327.500000	27.825250 
328.000000	27.959280 
328.500000	27.981613 
329.000000	28.091128 
329.500000	28.355507 
330.000000	28.614325 
330.500000	28.718401 
331.000000	28.798287 
331.500000	28.924287 
332.000000	29.131393 
332.500000	29.308795 
333.000000	29.451295 
333.500000	29.558530 
334.000000	29.717287 
334.500000	29.876795 
335.000000	30.012083 
335.500000	30.065371 
336.000000	30.199098 
336.500000	30.408174 
337.000000	30.660712 
337.500000	30.869386 
338.000000	31.056795 
338.500000	31.145893 
339.000000	31.182553 
339.500000	31.235825 
340.000000	31.460416 
340.500000	31.687666 
341.000000	31.881886 
341.500000	32.008871 
342.000000	32.228151 
342.500000	32.427787 
343.000000	32.610893 
343.500000	32.757772 
344.000000	33.003015 
344.500000	33.208734 
345.000000	33.332189 
345.500000	33.412128 
346.000000	33.570181 
346.500000	33.757090 
347.000000	33.917871 
347.500000	34.076068 
348.000000	34.262098 
348.500000	34.574181 
349.000000	34.920250 
349.500000	35.279424 
350.000000	35.458492 
350.500000	35.579401 
351.000000	35.613696 
351.500000	35.691666 
352.000000	35.792159 
352.500000	36.080060 
353.000000	36.421666 
353.500000	36.684492 
354.000000	36.781628 
354.500000	36.826280 
355.000000	36.860348 
355.500000	37.004666 
356.000000	37.191007 
356.500000	37.442401 
357.000000	37.656151 
357.500000	37.879166 
358.000000	38.103772 
358.500000	38.353303 
359.000000	38.613030 
359.500000	38.832848 
360.000000	39.039795 
360.500000	39.163196 
361.000000	39.278750 
361.500000	39.299984 
362.000000	39.309484 
362.500000	39.260083 
363.000000	39.347318 
363.500000	39.530454 
364.000000	39.750227 
364.500000	39.718992 
365.000000	39.574030 
365.500000	39.397174 
366.000000	39.276303 
366.500000	39.037378 
367.000000	38.865204 
367.500000	38.789325 
368.000000	38.715030 
368.500000	38.485272 
369.000000	38.218462 
369.500000	37.979151 
370.000000	37.717734 
370.500000	37.368363 
371.000000	36.988015 
371.500000	36.623712 
372.000000	36.256083 
372.500000	35.906787 
373.000000	35.573651 
373.500000	35.208530 
374.000000	34.737886 
374.500000	34.224000 
375.000000	33.650893 
375.500000	33.142075 
376.000000	32.751159 
376.500000	32.449424 
377.000000	32.006962 
377.500000	31.390651 
378.000000	30.808454 
378.500000	30.378553 
379.000000	29.999901 
379.500000	29.508007 
380.000000	28.962568 
380.500000	28.436469 
381.000000	27.943772 
381.500000	27.472878 
382.000000	27.036174 
382.500000	26.614712 
383.000000	26.215371 
383.500000	25.815598 
384.000000	25.411401 
384.500000	24.967863 
385.000000	24.500522 
385.500000	23.964613 
386.000000	23.458204 
386.500000	22.995780 
387.000000	22.594356 
387.500000	22.143500 
388.000000	21.662454 
388.500000	21.241303 
389.000000	20.930022 
389.500000	20.548742 
390.000000	20.085113 
390.500000	19.622886 
391.000000	19.306363 
391.500000	19.015696 
392.000000	18.676121 
392.500000	18.272000 
393.000000	17.927492 
393.500000	17.623787 
394.000000	17.310757 
394.500000	16.957174 
395.000000	16.561121 
395.500000	16.168393 
396.000000	15.799969 
396.500000	15.487545 
397.000000	15.208719 
397.500000	14.944568 
398.000000	14.669250 
398.500000	14.398545 
399.000000	14.134590 
399.500000	13.893878 
400.000000	13.634128 
400.500000	13.382446 
401.000000	13.104856 
401.500000	12.867113 
402.000000	12.591037 
402.500000	12.340015 
403.000000	12.089022 
403.500000	11.894946 
404.000000	11.683416 
404.500000	11.470272 
405.000000	11.245553 
405.500000	10.987166 
406.000000	10.704303 
406.500000	10.436128 
407.000000	10.260303 
407.500000	10.139795 
408.000000	10.019007 
408.500000	9.832522  
409.000000	9.576469  
409.500000	9.289060  
410.000000	9.009727  
410.500000	8.771946  
411.000000	8.554340  
411.500000	8.374553  
412.000000	8.191856  
412.500000	7.993469  
413.000000	7.771583  
413.500000	7.590939  
414.000000	7.445363  
414.500000	7.314856  
415.000000	7.165962  
415.500000	7.015303  
416.000000	6.856439  
416.500000	6.688272  
417.000000	6.542507  
417.500000	6.442977  
418.000000	6.344439  
418.500000	6.226992  
419.000000	6.097575  
419.500000	5.989265  
420.000000	5.886583  
420.500000	5.782075  
421.000000	5.682871  
421.500000	5.624424  
422.000000	5.574462  
422.500000	5.480924  
423.000000	5.358356  
423.500000	5.258469  
424.000000	5.206810  
424.500000	5.169378  
425.000000	5.096181  
425.500000	5.019015  
426.000000	4.957113  
426.500000	4.905196  
427.000000	4.812287  
427.500000	4.700522  
428.000000	4.598015  
428.500000	4.555924  
429.000000	4.550772  
429.500000	4.544863  
430.000000	4.528128  
430.500000	4.503106  
431.000000	4.450174  
431.500000	4.379765  
432.000000	4.290674  
432.500000	4.217454  
433.000000	4.154939  
433.500000	4.101363  
434.000000	4.052333  
434.500000	4.018856  
435.000000	3.975348  
435.500000	3.905219  
436.000000	3.832886  
436.500000	3.776075  
437.000000	3.746174  
437.500000	3.694522  
438.000000	3.635636  
438.500000	3.588651  
439.000000	3.571962  
439.500000	3.548196  
440.000000	3.514265  
440.500000	3.467939  
441.000000	3.422643  
441.500000	3.375969  
442.000000	3.354090  
442.500000	3.351734  
443.000000	3.350075  
443.500000	3.314628  
444.000000	3.273196  
444.500000	3.250015  
445.000000	3.256643  
445.500000	3.251454  
446.000000	3.223348  
446.500000	3.173219  
447.000000	3.125318  
447.500000	3.097386  
448.000000	3.091628  
448.500000	3.098303  
449.000000	3.102219  
449.500000	3.105015  
450.000000	3.113803  
450.500000	3.122696  
451.000000	3.115469  
451.500000	3.081037  
452.000000	3.033189  
452.500000	2.982121  
453.000000	2.952227  
453.500000	2.933295  
454.000000	2.928212  
454.500000	2.914893  
455.000000	2.908166  
455.500000	2.892196  
456.000000	2.869651  
456.500000	2.832515  
457.000000	2.818401  
457.500000	2.818583  
458.000000	2.822265  
458.500000	2.811287  
459.000000	2.811969  
459.500000	2.822712  
460.000000	2.838128  
460.500000	2.829121  
461.000000	2.817727  
461.500000	2.803340  
462.000000	2.802962  
462.500000	2.803196  
463.000000	2.797871  
463.500000	2.776030  
464.000000	2.750636  
464.500000	2.729250  
465.000000	2.720916  
465.500000	2.719340  
466.000000	2.722803  
466.500000	2.724303  
467.000000	2.723969  
467.500000	2.697075  
468.000000	2.686613  
468.500000	2.696250  
469.000000	2.741212  
469.500000	2.760939  
470.000000	2.743833  
470.500000	2.700287  
471.000000	2.664643  
471.500000	2.652939  
472.000000	2.654719  
472.500000	2.666636  
473.000000	2.669962  
473.500000	2.685613  
474.000000	2.696643  
474.500000	2.703818  
475.000000	2.690166  
475.500000	2.671515  
476.000000	2.670818  
476.500000	2.696325  
477.000000	2.708795  
477.500000	2.699590  
478.000000	2.676492  
478.500000	2.664787  
479.000000	2.658992  
479.500000	2.665818  
480.000000	2.670848  
480.500000	2.684583  
481.000000	2.685583  
481.500000	2.689340  
482.000000	2.679962  
482.500000	2.662643  
483.000000	2.642878  
483.500000	2.657787  
484.000000	2.683356  
484.500000	2.713325  
485.000000	2.740613  
485.500000	2.784143  
486.000000	2.853113  
486.500000	2.922242  
487.000000	2.966750  
487.500000	2.986613  
488.000000	3.030939  
488.500000	3.121643  
489.000000	3.227007  
489.500000	3.270227  
490.000000	3.245000  

