PE FL                   SPECTRUM    ASCII       PEDS        1.60        
  -1
CDSRT#49.SP
02/03/22
03:34:14.00
02/03/22
03:34:59.00


326.500000
1









LS55
520.00
5.00
5.00
SCAN
1
20
100
100
0
100
0
1
0
1
7
ON
480 520 
1 0 0
#HDR
-1
-1
#GR
NM

0.00002384185791015625
0.0
270.000000
0.500000
114
8
0.190393
0.066212
#DATA
270.000000	0.074000 
270.500000	0.067681 
271.000000	0.066212 
271.500000	0.072045 
272.000000	0.085613 
272.500000	0.098431 
273.000000	0.105696 
273.500000	0.105598 
274.000000	0.103409 
274.500000	0.104613 
275.000000	0.107272 
275.500000	0.113954 
276.000000	0.118772 
276.500000	0.125409 
277.000000	0.129060 
277.500000	0.132674 
278.000000	0.131946 
278.500000	0.138015 
279.000000	0.143590 
279.500000	0.144477 
280.000000	0.141143 
280.500000	0.142325 
281.000000	0.143909 
281.500000	0.139128 
282.000000	0.128446 
282.500000	0.124446 
283.000000	0.130053 
283.500000	0.137045 
284.000000	0.139000 
284.500000	0.145598 
285.000000	0.154643 
285.500000	0.164295 
286.000000	0.157924 
286.500000	0.144204 
287.000000	0.130212 
287.500000	0.127151 
288.000000	0.121719 
288.500000	0.117507 
289.000000	0.110825 
289.500000	0.110856 
290.000000	0.118742 
290.500000	0.137651 
291.000000	0.148537 
291.500000	0.150757 
292.000000	0.145000 
292.500000	0.143893 
293.000000	0.140310 
293.500000	0.138401 
294.000000	0.133636 
294.500000	0.136689 
295.000000	0.135356 
295.500000	0.139325 
296.000000	0.142818 
296.500000	0.143560 
297.000000	0.135992 
297.500000	0.126045 
298.000000	0.122621 
298.500000	0.132916 
299.000000	0.154954 
299.500000	0.165636 
300.000000	0.160568 
300.500000	0.146704 
301.000000	0.144590 
301.500000	0.144590 
302.000000	0.136969 
302.500000	0.127871 
303.000000	0.131750 
303.500000	0.141500 
304.000000	0.146606 
304.500000	0.140045 
305.000000	0.136325 
305.500000	0.142295 
306.000000	0.154598 
306.500000	0.157401 
307.000000	0.151901 
307.500000	0.146037 
308.000000	0.145340 
308.500000	0.147568 
309.000000	0.146939 
309.500000	0.152212 
310.000000	0.158871 
310.500000	0.165393 
311.000000	0.165787 
311.500000	0.166045 
312.000000	0.163053 
312.500000	0.162318 
313.000000	0.162083 
313.500000	0.167810 
314.000000	0.169696 
314.500000	0.167219 
315.000000	0.158462 
315.500000	0.154363 
316.000000	0.149636 
316.500000	0.149075 
317.000000	0.149666 
317.500000	0.155106 
318.000000	0.159712 
318.500000	0.160303 
319.000000	0.162333 
319.500000	0.170060 
320.000000	0.182068 
320.500000	0.187500 
321.000000	0.186356 
321.500000	0.178871 
322.000000	0.176068 
322.500000	0.176984 
323.000000	0.182515 
323.500000	0.188772 
324.000000	0.190393 
324.500000	0.187507 
325.000000	0.183878 
325.500000	0.184681 
326.000000	0.183848 
326.500000	0.180000 

