PE FL                   SPECTRUM    ASCII       PEDS        1.60        
  -1
CDSRT#18.SP
02/03/22
01:10:06.00
02/03/22
01:11:46.00


758.500000
1









LS55
560.00
5.00
5.00
SCAN
1
20
100
100
0
100
0
1
0
1
7
ON
560 530 
1 0 0
#HDR
-1
-1
#GR
NM

0.00002384185791015625
0.0
600.000000
0.500000
318
8
0.984999
0.089234
#DATA
600.000000	0.984999 
600.500000	0.973265 
601.000000	0.972992 
601.500000	0.974022 
602.000000	0.957484 
602.500000	0.939257 
603.000000	0.923651 
603.500000	0.909121 
604.000000	0.885712 
604.500000	0.863666 
605.000000	0.859742 
605.500000	0.854924 
606.000000	0.851378 
606.500000	0.845962 
607.000000	0.837439 
607.500000	0.808499 
608.000000	0.776863 
608.500000	0.759909 
609.000000	0.760772 
609.500000	0.762878 
610.000000	0.748454 
610.500000	0.721257 
611.000000	0.691560 
611.500000	0.682590 
612.000000	0.700121 
612.500000	0.716863 
613.000000	0.710984 
613.500000	0.685598 
614.000000	0.654234 
614.500000	0.633916 
615.000000	0.627651 
615.500000	0.633128 
616.000000	0.636295 
616.500000	0.637507 
617.000000	0.627000 
617.500000	0.612780 
618.000000	0.591386 
618.500000	0.578492 
619.000000	0.567166 
619.500000	0.560424 
620.000000	0.538098 
620.500000	0.524265 
621.000000	0.520295 
621.500000	0.535212 
622.000000	0.540022 
622.500000	0.532621 
623.000000	0.515636 
623.500000	0.513090 
624.000000	0.523295 
624.500000	0.527825 
625.000000	0.520477 
625.500000	0.502780 
626.000000	0.497530 
626.500000	0.499681 
627.000000	0.500568 
627.500000	0.487840 
628.000000	0.474643 
628.500000	0.461000 
629.000000	0.462409 
629.500000	0.467189 
630.000000	0.473242 
630.500000	0.457462 
631.000000	0.441696 
631.500000	0.422909 
632.000000	0.427469 
632.500000	0.428060 
633.000000	0.426499 
633.500000	0.407621 
634.000000	0.403643 
634.500000	0.405871 
635.000000	0.404765 
635.500000	0.386598 
636.000000	0.371446 
636.500000	0.370265 
637.000000	0.369424 
637.500000	0.360446 
638.000000	0.357227 
638.500000	0.362348 
639.000000	0.368712 
639.500000	0.358659 
640.000000	0.343833 
640.500000	0.328257 
641.000000	0.327931 
641.500000	0.332772 
642.000000	0.339590 
642.500000	0.333689 
643.000000	0.324893 
643.500000	0.318757 
644.000000	0.329946 
644.500000	0.351689 
645.000000	0.365575 
645.500000	0.359886 
646.000000	0.340462 
646.500000	0.321393 
647.000000	0.304825 
647.500000	0.297590 
648.000000	0.290318 
648.500000	0.289522 
649.000000	0.283803 
649.500000	0.286613 
650.000000	0.289674 
650.500000	0.291643 
651.000000	0.288727 
651.500000	0.283787 
652.000000	0.278833 
652.500000	0.275939 
653.000000	0.286348 
653.500000	0.296795 
654.000000	0.296318 
654.500000	0.283613 
655.000000	0.272371 
655.500000	0.268060 
656.000000	0.264909 
656.500000	0.263022 
657.000000	0.257356 
657.500000	0.256750 
658.000000	0.250590 
658.500000	0.251704 
659.000000	0.250477 
659.500000	0.251909 
660.000000	0.247712 
660.500000	0.243613 
661.000000	0.241439 
661.500000	0.244439 
662.000000	0.244537 
662.500000	0.240515 
663.000000	0.234659 
663.500000	0.229613 
664.000000	0.222856 
664.500000	0.221742 
665.000000	0.238045 
665.500000	0.271765 
666.000000	0.293840 
666.500000	0.288992 
667.000000	0.264250 
667.500000	0.248287 
668.000000	0.251318 
668.500000	0.271901 
669.000000	0.289060 
669.500000	0.294022 
670.000000	0.288219 
670.500000	0.291818 
671.000000	0.300606 
671.500000	0.308265 
672.000000	0.305833 
672.500000	0.304522 
673.000000	0.302371 
673.500000	0.297909 
674.000000	0.281068 
674.500000	0.258022 
675.000000	0.239598 
675.500000	0.234378 
676.000000	0.236696 
676.500000	0.236909 
677.000000	0.232537 
677.500000	0.225568 
678.000000	0.222848 
678.500000	0.224196 
679.000000	0.232492 
679.500000	0.240553 
680.000000	0.245704 
680.500000	0.251931 
681.000000	0.256318 
681.500000	0.258393 
682.000000	0.262446 
682.500000	0.274401 
683.000000	0.292856 
683.500000	0.314151 
684.000000	0.333863 
684.500000	0.355515 
685.000000	0.385636 
685.500000	0.423553 
686.000000	0.469037 
686.500000	0.492515 
687.000000	0.506492 
687.500000	0.515159 
688.000000	0.534719 
688.500000	0.550863 
689.000000	0.572340 
689.500000	0.587113 
690.000000	0.597871 
690.500000	0.600189 
691.000000	0.613825 
691.500000	0.642174 
692.000000	0.659962 
692.500000	0.652621 
693.000000	0.637924 
693.500000	0.637643 
694.000000	0.643757 
694.500000	0.636446 
695.000000	0.623174 
695.500000	0.620196 
696.000000	0.623030 
696.500000	0.617727 
697.000000	0.617537 
697.500000	0.618060 
698.000000	0.628560 
698.500000	0.628522 
699.000000	0.618265 
699.500000	0.587848 
700.000000	0.564530 
700.500000	0.562204 
701.000000	0.574022 
701.500000	0.572166 
702.000000	0.550878 
702.500000	0.526984 
703.000000	0.505143 
703.500000	0.493439 
704.000000	0.492401 
704.500000	0.481265 
705.000000	0.459931 
705.500000	0.421696 
706.000000	0.387007 
706.500000	0.368234 
707.000000	0.381446 
707.500000	0.401348 
708.000000	0.396250 
708.500000	0.351250 
709.000000	0.305371 
709.500000	0.299484 
710.000000	0.319189 
710.500000	0.330446 
711.000000	0.316590 
711.500000	0.299015 
712.000000	0.291272 
712.500000	0.284598 
713.000000	0.269477 
713.500000	0.260166 
714.000000	0.251992 
714.500000	0.242704 
715.000000	0.219545 
715.500000	0.196916 
716.000000	0.184522 
716.500000	0.191371 
717.000000	0.197803 
717.500000	0.191500 
718.000000	0.167083 
718.500000	0.153409 
719.000000	0.154439 
719.500000	0.166492 
720.000000	0.165856 
720.500000	0.161560 
721.000000	0.148128 
721.500000	0.140515 
722.000000	0.128681 
722.500000	0.129113 
723.000000	0.128606 
723.500000	0.126659 
724.000000	0.114106 
724.500000	0.106916 
725.000000	0.106651 
725.500000	0.121250 
726.000000	0.135977 
726.500000	0.140696 
727.000000	0.124530 
727.500000	0.101015 
728.000000	0.089234 
728.500000	0.097189 
729.000000	0.112863 
729.500000	0.120159 
730.000000	0.117621 
730.500000	0.110750 
731.000000	0.110045 
731.500000	0.112909 
732.000000	0.118545 
732.500000	0.125863 
733.000000	0.138712 
733.500000	0.142045 
734.000000	0.138924 
734.500000	0.133992 
735.000000	0.136492 
735.500000	0.137363 
736.000000	0.136484 
736.500000	0.141696 
737.000000	0.146704 
737.500000	0.147901 
738.000000	0.147143 
738.500000	0.154606 
739.000000	0.158303 
739.500000	0.155265 
740.000000	0.149007 
740.500000	0.144810 
741.000000	0.140090 
741.500000	0.131765 
742.000000	0.132696 
742.500000	0.140939 
743.000000	0.148734 
743.500000	0.144068 
744.000000	0.137500 
744.500000	0.134272 
745.000000	0.136916 
745.500000	0.127621 
746.000000	0.115795 
746.500000	0.111196 
747.000000	0.122765 
747.500000	0.136984 
748.000000	0.158977 
748.500000	0.175916 
749.000000	0.179318 
749.500000	0.154053 
750.000000	0.129893 
750.500000	0.118325 
751.000000	0.123787 
751.500000	0.121818 
752.000000	0.122507 
752.500000	0.127325 
753.000000	0.130780 
753.500000	0.122871 
754.000000	0.107795 
754.500000	0.102106 
755.000000	0.104666 
755.500000	0.115613 
756.000000	0.120227 
756.500000	0.117886 
757.000000	0.104128 
757.500000	0.093856 
758.000000	0.095227 
758.500000	0.108000 

