PE FL                   SPECTRUM    ASCII       PEDS        1.60        
  -1
CDSRT#58.SP
02/03/22
03:58:31.00
02/03/22
04:01:06.00


540.000000
1









LS55
280.00
5.00
5.00
SCAN
1
20
100
100
0
100
0
1
0
1
7
ON
540 280 
1 0 0
#HDR
-1
-1
#GR
NM

0.00002384185791015625
0.0
300.000000
0.500000
481
8
12.555121
0.090674
#DATA
300.000000	0.291000  
300.500000	0.182856  
301.000000	0.128886  
301.500000	0.127954  
302.000000	0.155151  
302.500000	0.179045  
303.000000	0.198863  
303.500000	0.205727  
304.000000	0.219984  
304.500000	0.244121  
305.000000	0.260568  
305.500000	0.254090  
306.000000	0.234204  
306.500000	0.215310  
307.000000	0.203310  
307.500000	0.203696  
308.000000	0.217515  
308.500000	0.233219  
309.000000	0.239295  
309.500000	0.234212  
310.000000	0.233030  
310.500000	0.239015  
311.000000	0.248704  
311.500000	0.254371  
312.000000	0.252818  
312.500000	0.238477  
313.000000	0.222734  
313.500000	0.219878  
314.000000	0.233621  
314.500000	0.244325  
315.000000	0.243734  
315.500000	0.220113  
316.000000	0.193348  
316.500000	0.180227  
317.000000	0.186659  
317.500000	0.190825  
318.000000	0.191098  
318.500000	0.194303  
319.000000	0.204371  
319.500000	0.209727  
320.000000	0.203598  
320.500000	0.197356  
321.000000	0.186643  
321.500000	0.168090  
322.000000	0.153128  
322.500000	0.152469  
323.000000	0.157000  
323.500000	0.162954  
324.000000	0.170659  
324.500000	0.176265  
325.000000	0.168439  
325.500000	0.147446  
326.000000	0.128227  
326.500000	0.130848  
327.000000	0.142136  
327.500000	0.144613  
328.000000	0.132977  
328.500000	0.123007  
329.000000	0.121022  
329.500000	0.123818  
330.000000	0.124954  
330.500000	0.129250  
331.000000	0.132878  
331.500000	0.132363  
332.000000	0.119825  
332.500000	0.105242  
333.000000	0.095015  
333.500000	0.091621  
334.000000	0.090674  
334.500000	0.097469  
335.000000	0.111143  
335.500000	0.124924  
336.000000	0.125530  
336.500000	0.114280  
337.000000	0.101356  
337.500000	0.094318  
338.000000	0.094068  
338.500000	0.107181  
339.000000	0.124765  
339.500000	0.137924  
340.000000	0.132393  
340.500000	0.115621  
341.000000	0.097818  
341.500000	0.094280  
342.000000	0.105469  
342.500000	0.122462  
343.000000	0.130356  
343.500000	0.125916  
344.000000	0.120401  
344.500000	0.125219  
345.000000	0.129681  
345.500000	0.119666  
346.000000	0.103045  
346.500000	0.105348  
347.000000	0.120484  
347.500000	0.131136  
348.000000	0.118454  
348.500000	0.106742  
349.000000	0.112621  
349.500000	0.126969  
350.000000	0.129462  
350.500000	0.115606  
351.000000	0.108916  
351.500000	0.115196  
352.000000	0.125416  
352.500000	0.128174  
353.000000	0.121969  
353.500000	0.112393  
354.000000	0.111037  
354.500000	0.125303  
355.000000	0.139515  
355.500000	0.143765  
356.000000	0.139204  
356.500000	0.138954  
357.000000	0.138734  
357.500000	0.128568  
358.000000	0.116166  
358.500000	0.109083  
359.000000	0.115560  
359.500000	0.122424  
360.000000	0.132628  
360.500000	0.136295  
361.000000	0.141227  
361.500000	0.140734  
362.000000	0.145166  
362.500000	0.146545  
363.000000	0.150083  
363.500000	0.148674  
364.000000	0.150295  
364.500000	0.154719  
365.000000	0.159325  
365.500000	0.159159  
366.000000	0.156204  
366.500000	0.154060  
367.000000	0.155643  
367.500000	0.157931  
368.000000	0.166113  
368.500000	0.173583  
369.000000	0.170757  
369.500000	0.157333  
370.000000	0.155575  
370.500000	0.171083  
371.000000	0.191969  
371.500000	0.209992  
372.000000	0.225689  
372.500000	0.241212  
373.000000	0.245356  
373.500000	0.244234  
374.000000	0.235659  
374.500000	0.233219  
375.000000	0.235704  
375.500000	0.245598  
376.000000	0.247159  
376.500000	0.248939  
377.000000	0.256628  
377.500000	0.275431  
378.000000	0.283151  
378.500000	0.281280  
379.000000	0.285484  
379.500000	0.310325  
380.000000	0.335787  
380.500000	0.348560  
381.000000	0.357060  
381.500000	0.376409  
382.000000	0.407712  
382.500000	0.429878  
383.000000	0.439568  
383.500000	0.442878  
384.000000	0.443825  
384.500000	0.446492  
385.000000	0.461780  
385.500000	0.494613  
386.000000	0.523924  
386.500000	0.544893  
387.000000	0.570242  
387.500000	0.611151  
388.000000	0.639712  
388.500000	0.643265  
389.000000	0.643045  
389.500000	0.653318  
390.000000	0.678060  
390.500000	0.704606  
391.000000	0.736151  
391.500000	0.765689  
392.000000	0.804083  
392.500000	0.835401  
393.000000	0.868227  
393.500000	0.890818  
394.000000	0.922363  
394.500000	0.957439  
395.000000	1.001500  
395.500000	1.035628  
396.000000	1.067181  
396.500000	1.093598  
397.000000	1.127833  
397.500000	1.161992  
398.000000	1.180106  
398.500000	1.191477  
399.000000	1.216833  
399.500000	1.267545  
400.000000	1.323287  
400.500000	1.378992  
401.000000	1.416598  
401.500000	1.438318  
402.000000	1.459318  
402.500000	1.509621  
403.000000	1.597674  
403.500000	1.682515  
404.000000	1.734303  
404.500000	1.776886  
405.000000	1.836946  
405.500000	1.881666  
406.000000	1.900242  
406.500000	1.930166  
407.000000	2.011371  
407.500000	2.112772  
408.000000	2.161431  
408.500000	2.162825  
409.000000	2.181742  
409.500000	2.248431  
410.000000	2.317848  
410.500000	2.378598  
411.000000	2.436265  
411.500000	2.515227  
412.000000	2.583969  
412.500000	2.655977  
413.000000	2.744954  
413.500000	2.839416  
414.000000	2.920893  
414.500000	2.983303  
415.000000	3.053265  
415.500000	3.122984  
416.000000	3.221295  
416.500000	3.330007  
417.000000	3.436621  
417.500000	3.529628  
418.000000	3.623068  
418.500000	3.737363  
419.000000	3.857416  
419.500000	4.001090  
420.000000	4.124689  
420.500000	4.213181  
421.000000	4.278666  
421.500000	4.368848  
422.000000	4.499750  
422.500000	4.645795  
423.000000	4.799848  
423.500000	4.933598  
424.000000	5.032106  
424.500000	5.066151  
425.000000	5.105886  
425.500000	5.198386  
426.000000	5.348916  
426.500000	5.504939  
427.000000	5.630886  
427.500000	5.720234  
428.000000	5.795083  
428.500000	5.879742  
429.000000	6.022378  
429.500000	6.230507  
430.000000	6.451810  
430.500000	6.606765  
431.000000	6.701939  
431.500000	6.785159  
432.000000	6.914681  
432.500000	7.068734  
433.000000	7.208053  
433.500000	7.346787  
434.000000	7.475522  
434.500000	7.584840  
435.000000	7.672356  
435.500000	7.794772  
436.000000	7.917431  
436.500000	8.002249  
437.000000	8.057492  
437.500000	8.169598  
438.000000	8.342181  
438.500000	8.487068  
439.000000	8.607303  
439.500000	8.767856  
440.000000	9.016143  
440.500000	9.202901  
441.000000	9.259462  
441.500000	9.255977  
442.000000	9.329946  
442.500000	9.441045  
443.000000	9.551356  
443.500000	9.670522  
444.000000	9.846378  
444.500000	9.972303  
445.000000	10.001409 
445.500000	9.998992  
446.000000	10.122553 
446.500000	10.309234 
447.000000	10.451931 
447.500000	10.456333 
448.000000	10.449030 
448.500000	10.522053 
449.000000	10.683098 
449.500000	10.803265 
450.000000	10.877901 
450.500000	10.970522 
451.000000	11.085916 
451.500000	11.141575 
452.000000	11.097621 
452.500000	11.038590 
453.000000	11.046128 
453.500000	11.126484 
454.000000	11.194871 
454.500000	11.251287 
455.000000	11.291250 
455.500000	11.343810 
456.000000	11.417318 
456.500000	11.504575 
457.000000	11.559856 
457.500000	11.622250 
458.000000	11.680780 
458.500000	11.728257 
459.000000	11.704469 
459.500000	11.681500 
460.000000	11.676856 
460.500000	11.761909 
461.000000	11.807939 
461.500000	11.811371 
462.000000	11.742674 
462.500000	11.735257 
463.000000	11.798393 
463.500000	11.893537 
464.000000	11.903507 
464.500000	11.848098 
465.000000	11.805257 
465.500000	11.802333 
466.000000	11.850174 
466.500000	11.880553 
467.000000	11.933227 
467.500000	12.006500 
468.000000	12.119651 
468.500000	12.206492 
469.000000	12.245045 
469.500000	12.201712 
470.000000	12.109500 
470.500000	12.096696 
471.000000	12.172977 
471.500000	12.257977 
472.000000	12.224356 
472.500000	12.150371 
473.000000	12.150416 
473.500000	12.189674 
474.000000	12.178121 
474.500000	12.142000 
475.000000	12.156098 
475.500000	12.122606 
476.000000	12.072704 
476.500000	12.015590 
477.000000	12.074939 
477.500000	12.169393 
478.000000	12.319204 
478.500000	12.407143 
479.000000	12.407583 
479.500000	12.271113 
480.000000	12.184772 
480.500000	12.198098 
481.000000	12.238469 
481.500000	12.267318 
482.000000	12.333666 
482.500000	12.447484 
483.000000	12.523424 
483.500000	12.555121 
484.000000	12.549242 
484.500000	12.504280 
485.000000	12.477075 
485.500000	12.471522 
486.000000	12.507984 
486.500000	12.487037 
487.000000	12.383166 
487.500000	12.169742 
488.000000	12.003250 
488.500000	11.943553 
489.000000	11.985886 
489.500000	11.949931 
490.000000	11.768113 
490.500000	11.604090 
491.000000	11.539583 
491.500000	11.535068 
492.000000	11.434545 
492.500000	11.289522 
493.000000	11.133287 
493.500000	11.055901 
494.000000	10.964159 
494.500000	10.932583 
495.000000	10.884530 
495.500000	10.800545 
496.000000	10.670871 
496.500000	10.607439 
497.000000	10.543757 
497.500000	10.454446 
498.000000	10.379886 
498.500000	10.371833 
499.000000	10.331083 
499.500000	10.215325 
500.000000	10.090696 
500.500000	10.041242 
501.000000	10.000780 
501.500000	9.922204  
502.000000	9.787257  
502.500000	9.676272  
503.000000	9.574530  
503.500000	9.545272  
504.000000	9.557431  
504.500000	9.594265  
505.000000	9.565833  
505.500000	9.428643  
506.000000	9.230121  
506.500000	9.105212  
507.000000	9.101136  
507.500000	9.133909  
508.000000	9.149454  
508.500000	9.112583  
509.000000	9.054303  
509.500000	8.987287  
510.000000	8.939045  
510.500000	8.907204  
511.000000	8.885174  
511.500000	8.784318  
512.000000	8.621356  
512.500000	8.469113  
513.000000	8.403606  
513.500000	8.359924  
514.000000	8.283295  
514.500000	8.186007  
515.000000	8.146613  
515.500000	8.158977  
516.000000	8.133492  
516.500000	8.022166  
517.000000	7.860098  
517.500000	7.713856  
518.000000	7.664196  
518.500000	7.706431  
519.000000	7.758765  
519.500000	7.698590  
520.000000	7.548310  
520.500000	7.396189  
521.000000	7.346598  
521.500000	7.352060  
522.000000	7.337833  
522.500000	7.309068  
523.000000	7.270371  
523.500000	7.221212  
524.000000	7.119977  
524.500000	7.050977  
525.000000	7.035045  
525.500000	7.055386  
526.000000	7.010522  
526.500000	6.950674  
527.000000	6.918083  
527.500000	6.912606  
528.000000	6.886992  
528.500000	6.831666  
529.000000	6.795234  
529.500000	6.753287  
530.000000	6.728909  
530.500000	6.678545  
531.000000	6.617901  
531.500000	6.503818  
532.000000	6.397143  
532.500000	6.321393  
533.000000	6.305969  
533.500000	6.283977  
534.000000	6.227318  
534.500000	6.135098  
535.000000	6.061340  
535.500000	6.007818  
536.000000	5.954931  
536.500000	5.868977  
537.000000	5.754962  
537.500000	5.667174  
538.000000	5.641818  
538.500000	5.669219  
539.000000	5.664000  
539.500000	5.579992  
540.000000	5.417000  

