PE FL                   SPECTRUM    ASCII       PEDS        1.60        
  -1
CDSRT#35.SP
02/03/22
02:54:44.00
02/03/22
02:57:25.00


600.000000
1









LS55
310.00
5.00
5.00
SCAN
1
20
100
100
0
100
0
1
0
1
7
ON
413 365 
1 0 0
#HDR
-1
-1
#GR
NM

0.00002384185791015625
0.0
340.000000
0.500000
521
8
25.540696
5.107333
#DATA
340.000000	9.537000  
340.500000	9.598363  
341.000000	9.599568  
341.500000	9.562681  
342.000000	9.537553  
342.500000	9.502348  
343.000000	9.454954  
343.500000	9.415727  
344.000000	9.413469  
344.500000	9.382348  
345.000000	9.311628  
345.500000	9.215954  
346.000000	9.213068  
346.500000	9.260159  
347.000000	9.297159  
347.500000	9.271363  
348.000000	9.244015  
348.500000	9.211643  
349.000000	9.202719  
349.500000	9.167848  
350.000000	9.155643  
350.500000	9.159234  
351.000000	9.171560  
351.500000	9.175219  
352.000000	9.174803  
352.500000	9.239666  
353.000000	9.351401  
353.500000	9.451053  
354.000000	9.417984  
354.500000	9.358825  
355.000000	9.327515  
355.500000	9.389931  
356.000000	9.446515  
356.500000	9.483893  
357.000000	9.466962  
357.500000	9.448856  
358.000000	9.452371  
358.500000	9.510393  
359.000000	9.600492  
359.500000	9.659469  
360.000000	9.665969  
360.500000	9.660560  
361.000000	9.725954  
361.500000	9.807280  
362.000000	9.862227  
362.500000	9.841045  
363.000000	9.825249  
363.500000	9.844583  
364.000000	9.895916  
364.500000	9.953643  
365.000000	10.012810 
365.500000	10.057977 
366.000000	10.112537 
366.500000	10.155696 
367.000000	10.183878 
367.500000	10.208833 
368.000000	10.282204 
368.500000	10.391530 
369.000000	10.530674 
369.500000	10.626174 
370.000000	10.719742 
370.500000	10.803840 
371.000000	10.899590 
371.500000	11.000060 
372.000000	11.135954 
372.500000	11.298946 
373.000000	11.468712 
373.500000	11.655219 
374.000000	11.831045 
374.500000	11.972606 
375.000000	12.066575 
375.500000	12.187522 
376.000000	12.326765 
376.500000	12.488598 
377.000000	12.643878 
377.500000	12.824613 
378.000000	13.007719 
378.500000	13.185909 
379.000000	13.365363 
379.500000	13.573340 
380.000000	13.704666 
380.500000	13.806871 
381.000000	13.914409 
381.500000	14.138030 
382.000000	14.421583 
382.500000	14.704068 
383.000000	14.879128 
383.500000	15.019583 
384.000000	15.156734 
384.500000	15.384704 
385.000000	15.661310 
385.500000	15.928636 
386.000000	16.116545 
386.500000	16.291522 
387.000000	16.519568 
387.500000	16.809446 
388.000000	17.060954 
388.500000	17.241000 
389.000000	17.418030 
389.500000	17.645803 
390.000000	17.905810 
390.500000	18.144113 
391.000000	18.368666 
391.500000	18.591734 
392.000000	18.773075 
392.500000	18.960113 
393.000000	19.137666 
393.500000	19.319143 
394.000000	19.460363 
394.500000	19.619500 
395.000000	19.811075 
395.500000	20.030643 
396.000000	20.272484 
396.500000	20.597848 
397.000000	20.919477 
397.500000	21.111507 
398.000000	21.181742 
398.500000	21.226416 
399.000000	21.333537 
399.500000	21.523356 
400.000000	21.751545 
400.500000	21.926333 
401.000000	22.073484 
401.500000	22.230636 
402.000000	22.478393 
402.500000	22.669227 
403.000000	22.775795 
403.500000	22.821810 
404.000000	22.952659 
404.500000	23.129969 
405.000000	23.322250 
405.500000	23.452530 
406.000000	23.556977 
406.500000	23.637310 
407.000000	23.759757 
407.500000	23.957606 
408.000000	24.157833 
408.500000	24.269363 
409.000000	24.234000 
409.500000	24.222636 
410.000000	24.311007 
410.500000	24.478916 
411.000000	24.576719 
411.500000	24.653651 
412.000000	24.721780 
412.500000	24.840878 
413.000000	24.910409 
413.500000	24.928909 
414.000000	24.927295 
414.500000	24.919037 
415.000000	24.932219 
415.500000	24.969083 
416.000000	25.075666 
416.500000	25.198515 
417.000000	25.335931 
417.500000	25.388431 
418.000000	25.442303 
418.500000	25.487643 
419.000000	25.540696 
419.500000	25.486515 
420.000000	25.375833 
420.500000	25.330674 
421.000000	25.373681 
421.500000	25.451280 
422.000000	25.474992 
422.500000	25.460022 
423.000000	25.379280 
423.500000	25.348325 
424.000000	25.267083 
424.500000	25.172515 
425.000000	25.035000 
425.500000	25.004742 
426.000000	25.002287 
426.500000	24.950401 
427.000000	24.797787 
427.500000	24.657863 
428.000000	24.589977 
428.500000	24.529575 
429.000000	24.433030 
429.500000	24.275795 
430.000000	24.140878 
430.500000	24.070704 
431.000000	23.965878 
431.500000	23.824174 
432.000000	23.742250 
432.500000	23.764227 
433.000000	23.752871 
433.500000	23.582439 
434.000000	23.285075 
434.500000	23.028840 
435.000000	22.881439 
435.500000	22.747045 
436.000000	22.587636 
436.500000	22.396363 
437.000000	22.257401 
437.500000	22.163871 
438.000000	22.020856 
438.500000	21.819977 
439.000000	21.670863 
439.500000	21.541840 
440.000000	21.413803 
440.500000	21.178522 
441.000000	20.950287 
441.500000	20.755984 
442.000000	20.655833 
442.500000	20.502757 
443.000000	20.355174 
443.500000	20.169757 
444.000000	19.966666 
444.500000	19.762151 
445.000000	19.619272 
445.500000	19.527287 
446.000000	19.335333 
446.500000	19.016893 
447.000000	18.745962 
447.500000	18.634545 
448.000000	18.550303 
448.500000	18.378424 
449.000000	18.172628 
449.500000	17.994878 
450.000000	17.841757 
450.500000	17.683310 
451.000000	17.504219 
451.500000	17.318886 
452.000000	17.110189 
452.500000	16.920818 
453.000000	16.784712 
453.500000	16.658954 
454.000000	16.546659 
454.500000	16.372469 
455.000000	16.181204 
455.500000	15.966325 
456.000000	15.768954 
456.500000	15.568590 
457.000000	15.423053 
457.500000	15.326750 
458.000000	15.242946 
458.500000	15.135500 
459.000000	14.969621 
459.500000	14.773151 
460.000000	14.542575 
460.500000	14.333454 
461.000000	14.176265 
461.500000	14.033500 
462.000000	13.851060 
462.500000	13.671696 
463.000000	13.501378 
463.500000	13.382939 
464.000000	13.276287 
464.500000	13.214159 
465.000000	13.131689 
465.500000	13.036712 
466.000000	12.874674 
466.500000	12.731628 
467.000000	12.617946 
467.500000	12.553916 
468.000000	12.472681 
468.500000	12.377712 
469.000000	12.255507 
469.500000	12.145121 
470.000000	11.990037 
470.500000	11.836515 
471.000000	11.670606 
471.500000	11.577674 
472.000000	11.526462 
472.500000	11.524446 
473.000000	11.453310 
473.500000	11.348969 
474.000000	11.250750 
474.500000	11.179515 
475.000000	11.106303 
475.500000	10.995356 
476.000000	10.886856 
476.500000	10.815500 
477.000000	10.765969 
477.500000	10.710333 
478.000000	10.634712 
478.500000	10.558984 
479.000000	10.492401 
479.500000	10.428204 
480.000000	10.357757 
480.500000	10.297356 
481.000000	10.235439 
481.500000	10.164560 
482.000000	10.134659 
482.500000	10.132348 
483.000000	10.131628 
483.500000	10.110787 
484.000000	10.064484 
484.500000	10.005628 
485.000000	9.899053  
485.500000	9.793848  
486.000000	9.721469  
486.500000	9.689878  
487.000000	9.644469  
487.500000	9.580166  
488.000000	9.491106  
488.500000	9.404909  
489.000000	9.323166  
489.500000	9.249545  
490.000000	9.161719  
490.500000	9.081075  
491.000000	9.026636  
491.500000	8.987742  
492.000000	8.908159  
492.500000	8.806712  
493.000000	8.699787  
493.500000	8.603833  
494.000000	8.537765  
494.500000	8.518840  
495.000000	8.536863  
495.500000	8.505022  
496.000000	8.435401  
496.500000	8.391651  
497.000000	8.384893  
497.500000	8.319227  
498.000000	8.196484  
498.500000	8.100249  
499.000000	8.068151  
499.500000	8.038696  
500.000000	7.963159  
500.500000	7.893901  
501.000000	7.864431  
501.500000	7.846393  
502.000000	7.812454  
502.500000	7.767833  
503.000000	7.745348  
503.500000	7.710575  
504.000000	7.683992  
504.500000	7.621363  
505.000000	7.582242  
505.500000	7.532553  
506.000000	7.521749  
506.500000	7.481583  
507.000000	7.448772  
507.500000	7.392431  
508.000000	7.354242  
508.500000	7.309462  
509.000000	7.287227  
509.500000	7.252136  
510.000000	7.226113  
510.500000	7.176886  
511.000000	7.134219  
511.500000	7.060363  
512.000000	7.012409  
512.500000	6.962151  
513.000000	6.926333  
513.500000	6.852303  
514.000000	6.805295  
514.500000	6.786712  
515.000000	6.804045  
515.500000	6.791015  
516.000000	6.787287  
516.500000	6.776780  
517.000000	6.754840  
517.500000	6.682787  
518.000000	6.593295  
518.500000	6.521189  
519.000000	6.509151  
519.500000	6.544803  
520.000000	6.559560  
520.500000	6.526795  
521.000000	6.442886  
521.500000	6.378863  
522.000000	6.352196  
522.500000	6.386787  
523.000000	6.420992  
523.500000	6.409287  
524.000000	6.321075  
524.500000	6.264363  
525.000000	6.256689  
525.500000	6.275780  
526.000000	6.246083  
526.500000	6.221643  
527.000000	6.195856  
527.500000	6.185924  
528.000000	6.161590  
528.500000	6.180992  
529.000000	6.206363  
529.500000	6.192469  
530.000000	6.099628  
530.500000	6.012537  
531.000000	5.983340  
531.500000	5.989689  
532.000000	5.974901  
532.500000	5.941446  
533.000000	5.925863  
533.500000	5.927303  
534.000000	5.906537  
534.500000	5.846666  
535.000000	5.780446  
535.500000	5.749780  
536.000000	5.746439  
536.500000	5.736772  
537.000000	5.724098  
537.500000	5.720409  
538.000000	5.723060  
538.500000	5.713113  
539.000000	5.693568  
539.500000	5.685318  
540.000000	5.695469  
540.500000	5.693477  
541.000000	5.661280  
541.500000	5.600083  
542.000000	5.525090  
542.500000	5.486106  
543.000000	5.510621  
543.500000	5.583333  
544.000000	5.643045  
544.500000	5.641787  
545.000000	5.574409  
545.500000	5.484053  
546.000000	5.417174  
546.500000	5.388727  
547.000000	5.373068  
547.500000	5.372007  
548.000000	5.395681  
548.500000	5.430174  
549.000000	5.429053  
549.500000	5.391984  
550.000000	5.357401  
550.500000	5.357598  
551.000000	5.344749  
551.500000	5.325931  
552.000000	5.301636  
552.500000	5.290462  
553.000000	5.284098  
553.500000	5.316916  
554.000000	5.369780  
554.500000	5.423280  
555.000000	5.445560  
555.500000	5.447856  
556.000000	5.456848  
556.500000	5.466765  
557.000000	5.477939  
557.500000	5.472128  
558.000000	5.434681  
558.500000	5.376469  
559.000000	5.369598  
559.500000	5.441075  
560.000000	5.508295  
560.500000	5.487037  
561.000000	5.401196  
561.500000	5.350151  
562.000000	5.355750  
562.500000	5.357492  
563.000000	5.350477  
563.500000	5.377560  
564.000000	5.433977  
564.500000	5.457325  
565.000000	5.405045  
565.500000	5.307795  
566.000000	5.241166  
566.500000	5.219734  
567.000000	5.203780  
567.500000	5.160401  
568.000000	5.124045  
568.500000	5.126431  
569.000000	5.183507  
569.500000	5.221871  
570.000000	5.220159  
570.500000	5.168484  
571.000000	5.135924  
571.500000	5.143954  
572.000000	5.150560  
572.500000	5.123856  
573.000000	5.107333  
573.500000	5.124037  
574.000000	5.134621  
574.500000	5.125681  
575.000000	5.116734  
575.500000	5.129007  
576.000000	5.149537  
576.500000	5.189090  
577.000000	5.228924  
577.500000	5.222643  
578.000000	5.184651  
578.500000	5.168825  
579.000000	5.184166  
579.500000	5.193151  
580.000000	5.198106  
580.500000	5.199681  
581.000000	5.211340  
581.500000	5.190931  
582.000000	5.192151  
582.500000	5.219689  
583.000000	5.284992  
583.500000	5.324803  
584.000000	5.356045  
584.500000	5.357022  
585.000000	5.368007  
585.500000	5.326628  
586.000000	5.272909  
586.500000	5.209515  
587.000000	5.230378  
587.500000	5.288477  
588.000000	5.376356  
588.500000	5.430083  
589.000000	5.463924  
589.500000	5.472416  
590.000000	5.454401  
590.500000	5.425818  
591.000000	5.402409  
591.500000	5.429333  
592.000000	5.467810  
592.500000	5.496560  
593.000000	5.503712  
593.500000	5.527924  
594.000000	5.571795  
594.500000	5.617348  
595.000000	5.663507  
595.500000	5.753628  
596.000000	5.854651  
596.500000	5.917204  
597.000000	5.929098  
597.500000	5.943984  
598.000000	5.989356  
598.500000	6.086818  
599.000000	6.181318  
599.500000	6.181742  
600.000000	6.072000  

