PE FL                   SPECTRUM    ASCII       PEDS        1.60        
  -1
CDSRT#08.SP
02/03/22
00:37:39.00
02/03/22
00:41:43.00


550.000000
1









LS55
365.00
5.00
5.00
SCAN
1
20
100
100
0
25
0
1
0
1
7
ON
503 365 
1 0 0
#HDR
-1
-1
#GR
NM

0.00002384185791015625
0.0
450.000000
0.500000
201
8
44.168466
32.123066
#DATA
450.000000	32.844000 
450.500000	32.143266 
451.000000	32.123066 
451.500000	32.425133 
452.000000	32.674066 
452.500000	32.831133 
453.000000	32.945333 
453.500000	33.138533 
454.000000	33.391200 
454.500000	33.618133 
455.000000	33.854666 
455.500000	34.088333 
456.000000	34.255000 
456.500000	34.380666 
457.000000	34.591533 
457.500000	34.824333 
458.000000	35.017399 
458.500000	35.191600 
459.000000	35.382733 
459.500000	35.575733 
460.000000	35.706866 
460.500000	35.870200 
461.000000	36.041733 
461.500000	36.041800 
462.000000	36.184800 
462.500000	36.522000 
463.000000	36.662533 
463.500000	36.738866 
464.000000	36.881600 
464.500000	36.989666 
465.000000	37.104800 
465.500000	37.247800 
466.000000	37.373600 
466.500000	37.548800 
467.000000	37.728266 
467.500000	37.904599 
468.000000	38.084133 
468.500000	38.262933 
469.000000	38.446266 
469.500000	38.615866 
470.000000	38.707533 
470.500000	38.858333 
471.000000	39.128666 
471.500000	39.420133 
472.000000	39.636000 
472.500000	39.761400 
473.000000	39.867933 
473.500000	40.092600 
474.000000	40.339933 
474.500000	40.555066 
475.000000	40.779866 
475.500000	40.943199 
476.000000	41.003000 
476.500000	41.125866 
477.000000	41.401400 
477.500000	41.575599 
478.000000	41.605266 
478.500000	41.742733 
479.000000	41.957066 
479.500000	42.131533 
480.000000	42.290066 
480.500000	42.468200 
481.000000	42.713866 
481.500000	42.943533 
482.000000	43.245600 
482.500000	43.586266 
483.000000	43.789600 
483.500000	43.942866 
484.000000	44.079133 
484.500000	44.119266 
485.000000	44.168466 
485.500000	44.100199 
486.000000	43.977533 
486.500000	44.046333 
487.000000	44.062600 
487.500000	43.916066 
488.000000	43.884333 
488.500000	43.917400 
489.000000	43.886200 
489.500000	43.856666 
490.000000	43.777800 
490.500000	43.730933 
491.000000	43.741000 
491.500000	43.658199 
492.000000	43.512133 
492.500000	43.484400 
493.000000	43.479800 
493.500000	43.405599 
494.000000	43.360066 
494.500000	43.363466 
495.000000	43.303400 
495.500000	43.234933 
496.000000	43.278533 
496.500000	43.267666 
497.000000	43.126000 
497.500000	43.099800 
498.000000	43.158533 
498.500000	43.049000 
499.000000	42.924866 
499.500000	42.873200 
500.000000	42.869266 
500.500000	42.925600 
501.000000	42.939000 
501.500000	42.825133 
502.000000	42.697866 
502.500000	42.667066 
503.000000	42.675800 
503.500000	42.728333 
504.000000	42.749400 
504.500000	42.644933 
505.000000	42.532866 
505.500000	42.441733 
506.000000	42.340866 
506.500000	42.321800 
507.000000	42.253733 
507.500000	42.222199 
508.000000	42.199999 
508.500000	42.062866 
509.000000	41.946400 
509.500000	41.914200 
510.000000	41.845200 
510.500000	41.743933 
511.000000	41.598066 
511.500000	41.450733 
512.000000	41.369733 
512.500000	41.311066 
513.000000	41.176466 
513.500000	41.054933 
514.000000	40.976466 
514.500000	40.894533 
515.000000	40.816533 
515.500000	40.675133 
516.000000	40.567200 
516.500000	40.545466 
517.000000	40.452000 
517.500000	40.317400 
518.000000	40.220066 
518.500000	40.025933 
519.000000	39.883666 
519.500000	39.862600 
520.000000	39.777733 
520.500000	39.650933 
521.000000	39.531333 
521.500000	39.424000 
522.000000	39.387800 
522.500000	39.285066 
523.000000	39.108800 
523.500000	39.024266 
524.000000	38.991866 
524.500000	38.932933 
525.000000	38.837400 
525.500000	38.697133 
526.000000	38.580000 
526.500000	38.487666 
527.000000	38.342533 
527.500000	38.270266 
528.000000	38.295933 
528.500000	38.296866 
529.000000	38.175600 
529.500000	37.969533 
530.000000	37.808066 
530.500000	37.699066 
531.000000	37.599600 
531.500000	37.556200 
532.000000	37.524800 
532.500000	37.345066 
533.000000	37.063933 
533.500000	36.886666 
534.000000	36.763400 
534.500000	36.607800 
535.000000	36.542333 
535.500000	36.478800 
536.000000	36.343733 
536.500000	36.176266 
537.000000	35.991800 
537.500000	35.894333 
538.000000	35.842600 
538.500000	35.703133 
539.000000	35.620000 
539.500000	35.584200 
540.000000	35.436133 
540.500000	35.292133 
541.000000	35.196266 
541.500000	35.043400 
542.000000	34.834266 
542.500000	34.669200 
543.000000	34.604866 
543.500000	34.515866 
544.000000	34.365466 
544.500000	34.236333 
545.000000	34.096799 
545.500000	33.936666 
546.000000	33.820533 
546.500000	33.736000 
547.000000	33.605933 
547.500000	33.524466 
548.000000	33.516133 
548.500000	33.359733 
549.000000	33.113333 
549.500000	32.779866 
550.000000	32.132000 

