PE FL                   SPECTRUM    ASCII       PEDS        1.60        
  -1
CDSRT#59.SP
02/03/22
04:03:49.00
02/03/22
04:06:35.00


600.000000
1









LS55
310.00
5.00
5.00
SCAN
1
20
100
100
0
100
0
1
0
1
7
ON
540 280 
1 0 0
#HDR
-1
-1
#GR
NM

0.00002384185791015625
0.0
340.000000
0.500000
521
8
18.703765
0.122000
#DATA
340.000000	0.122000  
340.500000	0.179643  
341.000000	0.210871  
341.500000	0.221621  
342.000000	0.220181  
342.500000	0.219325  
343.000000	0.210696  
343.500000	0.207780  
344.000000	0.203689  
344.500000	0.202348  
345.000000	0.200954  
345.500000	0.205522  
346.000000	0.211424  
346.500000	0.215295  
347.000000	0.217803  
347.500000	0.215265  
348.000000	0.213393  
348.500000	0.213068  
349.000000	0.215856  
349.500000	0.220113  
350.000000	0.221583  
350.500000	0.216916  
351.000000	0.208030  
351.500000	0.206886  
352.000000	0.219212  
352.500000	0.240310  
353.000000	0.248749  
353.500000	0.245015  
354.000000	0.238386  
354.500000	0.238727  
355.000000	0.239719  
355.500000	0.240181  
356.000000	0.238196  
356.500000	0.242007  
357.000000	0.245568  
357.500000	0.251219  
358.000000	0.254734  
358.500000	0.255871  
359.000000	0.250719  
359.500000	0.251424  
360.000000	0.262174  
360.500000	0.275893  
361.000000	0.278681  
361.500000	0.272378  
362.000000	0.273310  
362.500000	0.287249  
363.000000	0.296893  
363.500000	0.296265  
364.000000	0.296234  
364.500000	0.305704  
365.000000	0.317424  
365.500000	0.323454  
366.000000	0.326409  
366.500000	0.324265  
367.000000	0.314999  
367.500000	0.309371  
368.000000	0.321515  
368.500000	0.340621  
369.000000	0.356462  
369.500000	0.363424  
370.000000	0.370060  
370.500000	0.379386  
371.000000	0.385651  
371.500000	0.387280  
372.000000	0.384303  
372.500000	0.386250  
373.000000	0.394613  
373.500000	0.412939  
374.000000	0.429053  
374.500000	0.443310  
375.000000	0.442356  
375.500000	0.437977  
376.000000	0.440825  
376.500000	0.461287  
377.000000	0.480734  
377.500000	0.493469  
378.000000	0.500515  
378.500000	0.517787  
379.000000	0.530174  
379.500000	0.528583  
380.000000	0.525053  
380.500000	0.538416  
381.000000	0.559924  
381.500000	0.575992  
382.000000	0.588060  
382.500000	0.615098  
383.000000	0.647946  
383.500000	0.671613  
384.000000	0.679803  
384.500000	0.697719  
385.000000	0.732560  
385.500000	0.777053  
386.000000	0.802249  
386.500000	0.807530  
387.000000	0.806227  
387.500000	0.809977  
388.000000	0.816113  
388.500000	0.835303  
389.000000	0.867113  
389.500000	0.911143  
390.000000	0.944022  
390.500000	0.965227  
391.000000	0.974931  
391.500000	0.995083  
392.000000	1.021795  
392.500000	1.055492  
393.000000	1.078742  
393.500000	1.104310  
394.000000	1.151757  
394.500000	1.204287  
395.000000	1.243090  
395.500000	1.259666  
396.000000	1.292583  
396.500000	1.332772  
397.000000	1.367037  
397.500000	1.376454  
398.000000	1.398250  
398.500000	1.432386  
399.000000	1.473060  
399.500000	1.503962  
400.000000	1.530590  
400.500000	1.568818  
401.000000	1.623696  
401.500000	1.685537  
402.000000	1.732840  
402.500000	1.756568  
403.000000	1.775742  
403.500000	1.807818  
404.000000	1.848083  
404.500000	1.913916  
405.000000	1.990280  
405.500000	2.060946  
406.000000	2.095878  
406.500000	2.119212  
407.000000	2.153484  
407.500000	2.223507  
408.000000	2.296454  
408.500000	2.366287  
409.000000	2.407416  
409.500000	2.437575  
410.000000	2.476727  
410.500000	2.546795  
411.000000	2.622431  
411.500000	2.671909  
412.000000	2.711916  
412.500000	2.767636  
413.000000	2.841416  
413.500000	2.891696  
414.000000	2.934863  
414.500000	2.992151  
415.000000	3.108022  
415.500000	3.246386  
416.000000	3.374280  
416.500000	3.480356  
417.000000	3.547136  
417.500000	3.613053  
418.000000	3.673916  
418.500000	3.769143  
419.000000	3.887469  
419.500000	4.043575  
420.000000	4.167272  
420.500000	4.258121  
421.000000	4.312030  
421.500000	4.414537  
422.000000	4.590515  
422.500000	4.764371  
423.000000	4.875386  
423.500000	4.940992  
424.000000	5.029734  
424.500000	5.141742  
425.000000	5.263795  
425.500000	5.401416  
426.000000	5.547780  
426.500000	5.663787  
427.000000	5.731477  
427.500000	5.806007  
428.000000	5.930068  
428.500000	6.092674  
429.000000	6.239977  
429.500000	6.354462  
430.000000	6.469621  
430.500000	6.591704  
431.000000	6.725583  
431.500000	6.851409  
432.000000	6.963083  
432.500000	7.051143  
433.000000	7.135893  
433.500000	7.238174  
434.000000	7.352280  
434.500000	7.471530  
435.000000	7.605037  
435.500000	7.738772  
436.000000	7.842803  
436.500000	7.932393  
437.000000	8.061030  
437.500000	8.240681  
438.000000	8.427378  
438.500000	8.575363  
439.000000	8.680886  
439.500000	8.759401  
440.000000	8.852863  
440.500000	8.982022  
441.000000	9.109712  
441.500000	9.237696  
442.000000	9.386136  
442.500000	9.554939  
443.000000	9.675818  
443.500000	9.721992  
444.000000	9.773121  
444.500000	9.914575  
445.000000	10.126083 
445.500000	10.282606 
446.000000	10.358924 
446.500000	10.398484 
447.000000	10.498734 
447.500000	10.646060 
448.000000	10.772060 
448.500000	10.872462 
449.000000	10.954386 
449.500000	11.036060 
450.000000	11.134242 
450.500000	11.233598 
451.000000	11.317992 
451.500000	11.376628 
452.000000	11.494166 
452.500000	11.627068 
453.000000	11.769318 
453.500000	11.828151 
454.000000	11.934893 
454.500000	12.036333 
455.000000	12.148621 
455.500000	12.188643 
456.000000	12.275143 
456.500000	12.355810 
457.000000	12.431742 
457.500000	12.452219 
458.000000	12.526689 
458.500000	12.640696 
459.000000	12.779765 
459.500000	12.888015 
460.000000	12.977378 
460.500000	13.049477 
461.000000	13.107962 
461.500000	13.146780 
462.000000	13.223909 
462.500000	13.286022 
463.000000	13.385590 
463.500000	13.490325 
464.000000	13.626378 
464.500000	13.689507 
465.000000	13.740515 
465.500000	13.788727 
466.000000	13.902621 
466.500000	14.022401 
467.000000	14.129742 
467.500000	14.240924 
468.000000	14.369856 
468.500000	14.458886 
469.000000	14.465515 
469.500000	14.455121 
470.000000	14.542560 
470.500000	14.732962 
471.000000	14.930704 
471.500000	15.046272 
472.000000	15.099287 
472.500000	15.146984 
473.000000	15.195477 
473.500000	15.218810 
474.000000	15.230924 
474.500000	15.295189 
475.000000	15.388863 
475.500000	15.504462 
476.000000	15.600378 
476.500000	15.714068 
477.000000	15.817560 
477.500000	15.932515 
478.000000	16.022386 
478.500000	16.115636 
479.000000	16.164007 
479.500000	16.205030 
480.000000	16.261280 
480.500000	16.329121 
481.000000	16.448363 
481.500000	16.600166 
482.000000	16.780416 
482.500000	16.891560 
483.000000	16.961454 
483.500000	16.995106 
484.000000	17.091189 
484.500000	17.179583 
485.000000	17.285310 
485.500000	17.323272 
486.000000	17.352386 
486.500000	17.365984 
487.000000	17.408939 
487.500000	17.412666 
488.000000	17.387060 
488.500000	17.310234 
489.000000	17.291772 
489.500000	17.359090 
490.000000	17.483901 
490.500000	17.643143 
491.000000	17.798712 
491.500000	17.938863 
492.000000	17.932219 
492.500000	17.824901 
493.000000	17.712621 
493.500000	17.789060 
494.000000	17.882227 
494.500000	17.933537 
495.000000	17.861727 
495.500000	17.849340 
496.000000	17.878666 
496.500000	17.981181 
497.000000	18.032643 
497.500000	18.049393 
498.000000	18.036545 
498.500000	18.078113 
499.000000	18.162318 
499.500000	18.230878 
500.000000	18.247924 
500.500000	18.161818 
501.000000	18.088939 
501.500000	18.073174 
502.000000	18.166393 
502.500000	18.261863 
503.000000	18.287553 
503.500000	18.251643 
504.000000	18.228742 
504.500000	18.258469 
505.000000	18.295083 
505.500000	18.329742 
506.000000	18.374689 
506.500000	18.483621 
507.000000	18.605666 
507.500000	18.650439 
508.000000	18.601886 
508.500000	18.551590 
509.000000	18.546742 
509.500000	18.570121 
510.000000	18.570818 
510.500000	18.584037 
511.000000	18.618280 
511.500000	18.621803 
512.000000	18.535318 
512.500000	18.432431 
513.000000	18.399651 
513.500000	18.417916 
514.000000	18.467356 
514.500000	18.519492 
515.000000	18.610318 
515.500000	18.660037 
516.000000	18.660765 
516.500000	18.614704 
517.000000	18.621696 
517.500000	18.665416 
518.000000	18.703765 
518.500000	18.644265 
519.000000	18.566219 
519.500000	18.504022 
520.000000	18.492386 
520.500000	18.472681 
521.000000	18.487128 
521.500000	18.472356 
522.000000	18.466931 
522.500000	18.434280 
523.000000	18.455045 
523.500000	18.476742 
524.000000	18.491674 
524.500000	18.473893 
525.000000	18.434015 
525.500000	18.394356 
526.000000	18.361590 
526.500000	18.395681 
527.000000	18.488060 
527.500000	18.579340 
528.000000	18.548000 
528.500000	18.434439 
529.000000	18.361386 
529.500000	18.375098 
530.000000	18.363992 
530.500000	18.252500 
531.000000	18.085636 
531.500000	17.936757 
532.000000	17.908825 
532.500000	17.990416 
533.000000	18.114409 
533.500000	18.096378 
534.000000	17.967628 
534.500000	17.804628 
535.000000	17.756568 
535.500000	17.710750 
536.000000	17.692340 
536.500000	17.646128 
537.000000	17.662477 
537.500000	17.619075 
538.000000	17.598265 
538.500000	17.560969 
539.000000	17.562590 
539.500000	17.517924 
540.000000	17.465045 
540.500000	17.412727 
541.000000	17.378575 
541.500000	17.336295 
542.000000	17.286181 
542.500000	17.223901 
543.000000	17.147393 
543.500000	17.082136 
544.000000	17.090015 
544.500000	17.104356 
545.000000	17.134651 
545.500000	17.083931 
546.000000	17.006234 
546.500000	16.929068 
547.000000	16.912712 
547.500000	16.868545 
548.000000	16.768212 
548.500000	16.674060 
549.000000	16.625568 
549.500000	16.602598 
550.000000	16.548303 
550.500000	16.462363 
551.000000	16.385659 
551.500000	16.328303 
552.000000	16.311204 
552.500000	16.292560 
553.000000	16.287696 
553.500000	16.277098 
554.000000	16.321621 
554.500000	16.320901 
555.000000	16.203416 
555.500000	15.954628 
556.000000	15.763946 
556.500000	15.719977 
557.000000	15.788371 
557.500000	15.828030 
558.000000	15.820583 
558.500000	15.763068 
559.000000	15.654181 
559.500000	15.563083 
560.000000	15.558265 
560.500000	15.603659 
561.000000	15.564348 
561.500000	15.505704 
562.000000	15.479628 
562.500000	15.446984 
563.000000	15.361106 
563.500000	15.240848 
564.000000	15.156295 
564.500000	15.122212 
565.000000	15.133848 
565.500000	15.129424 
566.000000	15.062159 
566.500000	14.927795 
567.000000	14.804484 
567.500000	14.728818 
568.000000	14.691030 
568.500000	14.701878 
569.000000	14.716977 
569.500000	14.692568 
570.000000	14.663909 
570.500000	14.646340 
571.000000	14.625492 
571.500000	14.550242 
572.000000	14.450765 
572.500000	14.379378 
573.000000	14.343446 
573.500000	14.277886 
574.000000	14.210492 
574.500000	14.156878 
575.000000	14.148462 
575.500000	14.138280 
576.000000	14.071068 
576.500000	13.966196 
577.000000	13.898780 
577.500000	13.818363 
578.000000	13.752954 
578.500000	13.675946 
579.000000	13.628780 
579.500000	13.561250 
580.000000	13.503303 
580.500000	13.448681 
581.000000	13.474401 
581.500000	13.468530 
582.000000	13.423969 
582.500000	13.349363 
583.000000	13.323325 
583.500000	13.318212 
584.000000	13.287416 
584.500000	13.206431 
585.000000	13.139878 
585.500000	13.060621 
586.000000	12.975924 
586.500000	12.908431 
587.000000	12.886136 
587.500000	12.866303 
588.000000	12.807500 
588.500000	12.720856 
589.000000	12.627780 
589.500000	12.543916 
590.000000	12.522060 
590.500000	12.536446 
591.000000	12.529174 
591.500000	12.490431 
592.000000	12.476212 
592.500000	12.491939 
593.000000	12.517810 
593.500000	12.470628 
594.000000	12.369409 
594.500000	12.249287 
595.000000	12.159719 
595.500000	12.094598 
596.000000	12.017000 
596.500000	11.915704 
597.000000	11.855386 
597.500000	11.844204 
598.000000	11.811227 
598.500000	11.755272 
599.000000	11.734075 
599.500000	11.826621 
600.000000	12.027000 

