PE FL                   SPECTRUM    ASCII       PEDS        1.60        
  -1
CDSRT#46.SP
02/03/22
03:25:44.00
02/03/22
03:27:18.00


404.500000
1









LS55
520.00
5.00
5.00
SCAN
1
20
100
100
0
100
0
1
0
1
7
ON
600 365 
1 0 0
#HDR
-1
-1
#GR
NM

0.00002384185791015625
0.0
270.000000
0.500000
270
8
1.756477
1.025000
#DATA
270.000000	1.025000 
270.500000	1.155303 
271.000000	1.196492 
271.500000	1.169734 
272.000000	1.148992 
272.500000	1.149939 
273.000000	1.140462 
273.500000	1.131545 
274.000000	1.149037 
274.500000	1.181939 
275.000000	1.192015 
275.500000	1.164636 
276.000000	1.134075 
276.500000	1.130166 
277.000000	1.140696 
277.500000	1.145765 
278.000000	1.135090 
278.500000	1.125424 
279.000000	1.147742 
279.500000	1.193810 
280.000000	1.220401 
280.500000	1.201507 
281.000000	1.165742 
281.500000	1.159712 
282.000000	1.183590 
282.500000	1.210946 
283.000000	1.232613 
283.500000	1.251553 
284.000000	1.271931 
284.500000	1.322969 
285.000000	1.420939 
285.500000	1.540022 
286.000000	1.634742 
286.500000	1.699765 
287.000000	1.748371 
287.500000	1.756477 
288.000000	1.703045 
288.500000	1.604181 
289.000000	1.492780 
289.500000	1.385257 
290.000000	1.292553 
290.500000	1.232984 
291.000000	1.211833 
291.500000	1.210833 
292.000000	1.210545 
292.500000	1.203848 
293.000000	1.190068 
293.500000	1.167757 
294.000000	1.151878 
294.500000	1.153348 
295.000000	1.165643 
295.500000	1.173886 
296.000000	1.177590 
296.500000	1.182598 
297.000000	1.196651 
297.500000	1.218106 
298.000000	1.216022 
298.500000	1.200674 
299.000000	1.175583 
299.500000	1.179477 
300.000000	1.186924 
300.500000	1.197265 
301.000000	1.188272 
301.500000	1.183659 
302.000000	1.169106 
302.500000	1.154151 
303.000000	1.141439 
303.500000	1.144590 
304.000000	1.178174 
304.500000	1.208439 
305.000000	1.222977 
305.500000	1.201303 
306.000000	1.182681 
306.500000	1.184386 
307.000000	1.215303 
307.500000	1.247378 
308.000000	1.249560 
308.500000	1.223356 
309.000000	1.195500 
309.500000	1.192818 
310.000000	1.195666 
310.500000	1.208742 
311.000000	1.228128 
311.500000	1.246030 
312.000000	1.246893 
312.500000	1.236181 
313.000000	1.231386 
313.500000	1.234515 
314.000000	1.243446 
314.500000	1.254212 
315.000000	1.262825 
315.500000	1.266462 
316.000000	1.261636 
316.500000	1.252371 
317.000000	1.234409 
317.500000	1.219583 
318.000000	1.217212 
318.500000	1.243681 
319.000000	1.269083 
319.500000	1.283954 
320.000000	1.265363 
320.500000	1.249174 
321.000000	1.231204 
321.500000	1.236924 
322.000000	1.249363 
322.500000	1.265901 
323.000000	1.273196 
323.500000	1.273568 
324.000000	1.273818 
324.500000	1.263075 
325.000000	1.270628 
325.500000	1.276689 
326.000000	1.293333 
326.500000	1.287681 
327.000000	1.286606 
327.500000	1.287765 
328.000000	1.293825 
328.500000	1.297780 
329.000000	1.302772 
329.500000	1.301946 
330.000000	1.299825 
330.500000	1.298568 
331.000000	1.299416 
331.500000	1.289863 
332.000000	1.287825 
332.500000	1.283371 
333.000000	1.285174 
333.500000	1.267924 
334.000000	1.257113 
334.500000	1.251757 
335.000000	1.250666 
335.500000	1.234856 
336.000000	1.229560 
336.500000	1.245181 
337.000000	1.263462 
337.500000	1.255992 
338.000000	1.242037 
338.500000	1.244704 
339.000000	1.256424 
339.500000	1.255363 
340.000000	1.243742 
340.500000	1.242772 
341.000000	1.245060 
341.500000	1.259000 
342.000000	1.272333 
342.500000	1.289098 
343.000000	1.283568 
343.500000	1.267083 
344.000000	1.250083 
344.500000	1.264901 
345.000000	1.299886 
345.500000	1.329651 
346.000000	1.332795 
346.500000	1.311015 
347.000000	1.286696 
347.500000	1.287136 
348.000000	1.301537 
348.500000	1.305484 
349.000000	1.287712 
349.500000	1.275780 
350.000000	1.283674 
350.500000	1.292143 
351.000000	1.283575 
351.500000	1.283651 
352.000000	1.305969 
352.500000	1.330643 
353.000000	1.352106 
353.500000	1.359492 
354.000000	1.353946 
354.500000	1.317984 
355.000000	1.293469 
355.500000	1.299742 
356.000000	1.339204 
356.500000	1.352856 
357.000000	1.358674 
357.500000	1.367734 
358.000000	1.383984 
358.500000	1.390265 
359.000000	1.381886 
359.500000	1.361242 
360.000000	1.336030 
360.500000	1.340143 
361.000000	1.369598 
361.500000	1.398871 
362.000000	1.384825 
362.500000	1.366984 
363.000000	1.368712 
363.500000	1.385969 
364.000000	1.394037 
364.500000	1.392712 
365.000000	1.390598 
365.500000	1.387871 
366.000000	1.382712 
366.500000	1.373825 
367.000000	1.388568 
367.500000	1.407575 
368.000000	1.418765 
368.500000	1.407545 
369.000000	1.403204 
369.500000	1.406287 
370.000000	1.401666 
370.500000	1.376878 
371.000000	1.369878 
371.500000	1.397583 
372.000000	1.418189 
372.500000	1.419151 
373.000000	1.420090 
373.500000	1.456772 
374.000000	1.472083 
374.500000	1.451075 
375.000000	1.418075 
375.500000	1.437772 
376.000000	1.474507 
376.500000	1.484560 
377.000000	1.464803 
377.500000	1.460583 
378.000000	1.477371 
378.500000	1.482272 
379.000000	1.474719 
379.500000	1.468492 
380.000000	1.485075 
380.500000	1.520621 
381.000000	1.552295 
381.500000	1.561045 
382.000000	1.532871 
382.500000	1.501871 
383.000000	1.503469 
383.500000	1.543530 
384.000000	1.561250 
384.500000	1.547409 
385.000000	1.528613 
385.500000	1.546234 
386.000000	1.566969 
386.500000	1.559454 
387.000000	1.539106 
387.500000	1.542674 
388.000000	1.561037 
388.500000	1.570106 
389.000000	1.560757 
389.500000	1.544560 
390.000000	1.543378 
390.500000	1.542045 
391.000000	1.540401 
391.500000	1.531227 
392.000000	1.533356 
392.500000	1.539901 
393.000000	1.542962 
393.500000	1.531416 
394.000000	1.523659 
394.500000	1.518393 
395.000000	1.516643 
395.500000	1.511500 
396.000000	1.518689 
396.500000	1.534007 
397.000000	1.552969 
397.500000	1.556250 
398.000000	1.561022 
398.500000	1.573174 
399.000000	1.585431 
399.500000	1.568939 
400.000000	1.529037 
400.500000	1.507136 
401.000000	1.527340 
401.500000	1.561704 
402.000000	1.590106 
402.500000	1.586636 
403.000000	1.581348 
403.500000	1.580954 
404.000000	1.614469 
404.500000	1.676000 

