PE FL                   SPECTRUM    ASCII       PEDS        1.60        
  -1
CDSRT#15.SP
02/03/22
00:58:35.00
02/03/22
01:01:19.00


550.000000
1









LS55
580.00
5.00
5.00
SCAN
1
20
100
100
0
100
0
0
0
1
7
ON
490 450 
1 0 0
#HDR
-1
-1
#GR
NM

0.00002384185791015625
0.0
300.000000
0.500000
501
8
41.065681
1.460507
#DATA
300.000000	9.070000  
300.500000	10.295757 
301.000000	11.361553 
301.500000	12.259469 
302.000000	13.073901 
302.500000	13.939393 
303.000000	14.776219 
303.500000	15.578590 
304.000000	16.270015 
304.500000	16.949265 
305.000000	17.549242 
305.500000	18.103439 
306.000000	18.497053 
306.500000	18.840287 
307.000000	19.178212 
307.500000	19.554765 
308.000000	19.925454 
308.500000	20.243007 
309.000000	20.491075 
309.500000	20.659257 
310.000000	20.746924 
310.500000	20.832636 
311.000000	20.988674 
311.500000	21.230704 
312.000000	21.350416 
312.500000	21.415189 
313.000000	21.403318 
313.500000	21.479196 
314.000000	21.539272 
314.500000	21.624765 
315.000000	21.702666 
315.500000	21.813121 
316.000000	21.940234 
316.500000	22.070242 
317.000000	22.216469 
317.500000	22.297477 
318.000000	22.392522 
318.500000	22.502696 
319.000000	22.625787 
319.500000	22.678325 
320.000000	22.742159 
320.500000	22.778446 
321.000000	22.801075 
321.500000	22.781628 
322.000000	22.854499 
322.500000	23.005636 
323.000000	23.190969 
323.500000	23.288310 
324.000000	23.306962 
324.500000	23.237825 
325.000000	23.263356 
325.500000	23.386803 
326.000000	23.609234 
326.500000	23.754606 
327.000000	23.883742 
327.500000	23.950053 
328.000000	24.052765 
328.500000	24.127924 
329.000000	24.264416 
329.500000	24.365159 
330.000000	24.433704 
330.500000	24.497734 
331.000000	24.633901 
331.500000	24.767772 
332.000000	24.862356 
332.500000	24.902810 
333.000000	24.939143 
333.500000	24.963484 
334.000000	24.977166 
334.500000	25.062727 
335.000000	25.223227 
335.500000	25.411590 
336.000000	25.586780 
336.500000	25.737969 
337.000000	25.850128 
337.500000	25.910416 
338.000000	25.936204 
338.500000	25.963530 
339.000000	26.070810 
339.500000	26.259280 
340.000000	26.484560 
340.500000	26.653424 
341.000000	26.733371 
341.500000	26.803037 
342.000000	26.904500 
342.500000	27.026113 
343.000000	27.113227 
343.500000	27.196159 
344.000000	27.424575 
344.500000	27.788590 
345.000000	28.106977 
345.500000	28.218621 
346.000000	28.312348 
346.500000	28.522363 
347.000000	28.804060 
347.500000	29.046000 
348.000000	29.237477 
348.500000	29.441583 
349.000000	29.626310 
349.500000	29.893378 
350.000000	30.116795 
350.500000	30.386007 
351.000000	30.670500 
351.500000	31.112674 
352.000000	31.494242 
352.500000	31.735719 
353.000000	31.879484 
353.500000	32.134166 
354.000000	32.484871 
354.500000	32.802969 
355.000000	33.039053 
355.500000	33.273121 
356.000000	33.525196 
356.500000	33.814181 
357.000000	34.136204 
357.500000	34.569689 
358.000000	34.976530 
358.500000	35.310795 
359.000000	35.495371 
359.500000	35.778060 
360.000000	36.165272 
360.500000	36.632537 
361.000000	37.053522 
361.500000	37.410825 
362.000000	37.733181 
362.500000	38.067196 
363.000000	38.358446 
363.500000	38.583318 
364.000000	38.785325 
364.500000	39.006015 
365.000000	39.220977 
365.500000	39.473401 
366.000000	39.717871 
366.500000	39.992053 
367.000000	40.177181 
367.500000	40.369287 
368.000000	40.530204 
368.500000	40.696666 
369.000000	40.749409 
369.500000	40.769174 
370.000000	40.794590 
370.500000	40.865181 
371.000000	40.942257 
371.500000	41.019174 
372.000000	41.065681 
372.500000	41.059901 
373.000000	40.975242 
373.500000	40.840265 
374.000000	40.770174 
374.500000	40.683969 
375.000000	40.544810 
375.500000	40.355696 
376.000000	40.234287 
376.500000	40.112310 
377.000000	39.976583 
377.500000	39.752000 
378.000000	39.515560 
378.500000	39.266424 
379.000000	39.006060 
379.500000	38.732939 
380.000000	38.480128 
380.500000	38.336272 
381.000000	38.235386 
381.500000	38.063477 
382.000000	37.776954 
382.500000	37.489909 
383.000000	37.246712 
383.500000	37.037833 
384.000000	36.908015 
384.500000	36.794196 
385.000000	36.604287 
385.500000	36.268113 
386.000000	35.937492 
386.500000	35.618045 
387.000000	35.339204 
387.500000	35.055219 
388.000000	34.843856 
388.500000	34.557189 
389.000000	34.232371 
389.500000	33.849568 
390.000000	33.565030 
390.500000	33.275606 
391.000000	32.987825 
391.500000	32.658795 
392.000000	32.382295 
392.500000	32.154356 
393.000000	31.937340 
393.500000	31.645303 
394.000000	31.284060 
394.500000	30.950939 
395.000000	30.665575 
395.500000	30.357446 
396.000000	30.024098 
396.500000	29.706659 
397.000000	29.465196 
397.500000	29.224946 
398.000000	29.036462 
398.500000	28.804659 
399.000000	28.486719 
399.500000	28.073909 
400.000000	27.685651 
400.500000	27.363219 
401.000000	27.068492 
401.500000	26.761590 
402.000000	26.489931 
402.500000	26.199530 
403.000000	25.809886 
403.500000	25.355954 
404.000000	24.979696 
404.500000	24.689106 
405.000000	24.434439 
405.500000	24.122250 
406.000000	23.808257 
406.500000	23.455568 
407.000000	23.049984 
407.500000	22.613295 
408.000000	22.264553 
408.500000	21.999704 
409.000000	21.693272 
409.500000	21.235689 
410.000000	20.704878 
410.500000	20.209833 
411.000000	19.776871 
411.500000	19.392916 
412.000000	19.085196 
412.500000	18.841651 
413.000000	18.533113 
413.500000	18.096810 
414.000000	17.637893 
414.500000	17.305734 
415.000000	17.061515 
415.500000	16.776060 
416.000000	16.358818 
416.500000	15.935575 
417.000000	15.609242 
417.500000	15.362780 
418.000000	15.075181 
418.500000	14.701022 
419.000000	14.334871 
419.500000	14.021742 
420.000000	13.767037 
420.500000	13.576734 
421.000000	13.414628 
421.500000	13.202431 
422.000000	12.854863 
422.500000	12.466560 
423.000000	12.121060 
423.500000	11.896098 
424.000000	11.701068 
424.500000	11.496878 
425.000000	11.239030 
425.500000	10.976356 
426.000000	10.719159 
426.500000	10.472181 
427.000000	10.214424 
427.500000	9.945621  
428.000000	9.672840  
428.500000	9.413939  
429.000000	9.175553  
429.500000	8.986053  
430.000000	8.788075  
430.500000	8.557606  
431.000000	8.256598  
431.500000	7.967636  
432.000000	7.702409  
432.500000	7.501636  
433.000000	7.319068  
433.500000	7.155318  
434.000000	6.941780  
434.500000	6.708583  
435.000000	6.472128  
435.500000	6.311098  
436.000000	6.190287  
436.500000	6.058984  
437.000000	5.887363  
437.500000	5.743318  
438.000000	5.630689  
438.500000	5.510628  
439.000000	5.334681  
439.500000	5.140969  
440.000000	4.998280  
440.500000	4.884174  
441.000000	4.782636  
441.500000	4.658969  
442.000000	4.551621  
442.500000	4.437219  
443.000000	4.323939  
443.500000	4.199765  
444.000000	4.106507  
444.500000	4.032295  
445.000000	3.955681  
445.500000	3.867227  
446.000000	3.770386  
446.500000	3.675666  
447.000000	3.567674  
447.500000	3.466196  
448.000000	3.376030  
448.500000	3.311007  
449.000000	3.254765  
449.500000	3.218893  
450.000000	3.191393  
450.500000	3.156378  
451.000000	3.074242  
451.500000	2.985522  
452.000000	2.905946  
452.500000	2.864878  
453.000000	2.816462  
453.500000	2.771507  
454.000000	2.703325  
454.500000	2.663151  
455.000000	2.630734  
455.500000	2.635893  
456.000000	2.629196  
456.500000	2.600045  
457.000000	2.542863  
457.500000	2.496696  
458.000000	2.474143  
458.500000	2.463969  
459.000000	2.435674  
459.500000	2.388446  
460.000000	2.357242  
460.500000	2.355568  
461.000000	2.350659  
461.500000	2.319719  
462.000000	2.257030  
462.500000	2.215606  
463.000000	2.199750  
463.500000	2.215833  
464.000000	2.224522  
464.500000	2.235378  
465.000000	2.232363  
465.500000	2.224696  
466.000000	2.184696  
466.500000	2.141689  
467.000000	2.106113  
467.500000	2.093015  
468.000000	2.083962  
468.500000	2.076303  
469.000000	2.066333  
469.500000	2.048742  
470.000000	2.039060  
470.500000	2.033363  
471.000000	2.036545  
471.500000	2.036333  
472.000000	2.035863  
472.500000	2.022613  
473.000000	2.006166  
473.500000	1.975909  
474.000000	1.971689  
474.500000	1.986409  
475.000000	2.002787  
475.500000	1.975227  
476.000000	1.941272  
476.500000	1.916787  
477.000000	1.927492  
477.500000	1.937454  
478.000000	1.951151  
478.500000	1.961462  
479.000000	1.971242  
479.500000	1.974446  
480.000000	1.976106  
480.500000	1.968007  
481.000000	1.965015  
481.500000	1.960424  
482.000000	1.959022  
482.500000	1.948780  
483.000000	1.949000  
483.500000	1.943371  
484.000000	1.929530  
484.500000	1.894371  
485.000000	1.870833  
485.500000	1.862219  
486.000000	1.863606  
486.500000	1.859931  
487.000000	1.836363  
487.500000	1.802106  
488.000000	1.764121  
488.500000	1.745803  
489.000000	1.744651  
489.500000	1.758075  
490.000000	1.762416  
490.500000	1.758954  
491.000000	1.746121  
491.500000	1.732477  
492.000000	1.720500  
492.500000	1.717340  
493.000000	1.717075  
493.500000	1.722598  
494.000000	1.711037  
494.500000	1.699492  
495.000000	1.679469  
495.500000	1.678098  
496.000000	1.671689  
496.500000	1.675613  
497.000000	1.655818  
497.500000	1.640856  
498.000000	1.616075  
498.500000	1.609696  
499.000000	1.600886  
499.500000	1.598492  
500.000000	1.584515  
500.500000	1.563621  
501.000000	1.541727  
501.500000	1.536863  
502.000000	1.543931  
502.500000	1.537803  
503.000000	1.527477  
503.500000	1.529613  
504.000000	1.548272  
504.500000	1.558416  
505.000000	1.556568  
505.500000	1.551621  
506.000000	1.550250  
506.500000	1.548196  
507.000000	1.540484  
507.500000	1.517871  
508.000000	1.495560  
508.500000	1.490810  
509.000000	1.502439  
509.500000	1.505159  
510.000000	1.502492  
510.500000	1.497909  
511.000000	1.510159  
511.500000	1.515742  
512.000000	1.514015  
512.500000	1.497439  
513.000000	1.491462  
513.500000	1.494924  
514.000000	1.501863  
514.500000	1.496924  
515.000000	1.491075  
515.500000	1.485590  
516.000000	1.476265  
516.500000	1.460507  
517.000000	1.470878  
517.500000	1.486143  
518.000000	1.493795  
518.500000	1.475045  
519.000000	1.474674  
519.500000	1.480878  
520.000000	1.497454  
520.500000	1.500090  
521.000000	1.498696  
521.500000	1.484037  
522.000000	1.469083  
522.500000	1.473878  
523.000000	1.491621  
523.500000	1.505378  
524.000000	1.500962  
524.500000	1.503727  
525.000000	1.513825  
525.500000	1.532840  
526.000000	1.541946  
526.500000	1.529424  
527.000000	1.496022  
527.500000	1.463651  
528.000000	1.462416  
528.500000	1.485446  
529.000000	1.509280  
529.500000	1.511022  
530.000000	1.502613  
530.500000	1.513363  
531.000000	1.543795  
531.500000	1.569386  
532.000000	1.560901  
532.500000	1.533666  
533.000000	1.523356  
533.500000	1.541393  
534.000000	1.583734  
534.500000	1.623803  
535.000000	1.631030  
535.500000	1.585772  
536.000000	1.531234  
536.500000	1.530666  
537.000000	1.572606  
537.500000	1.622924  
538.000000	1.629174  
538.500000	1.617416  
539.000000	1.590106  
539.500000	1.592454  
540.000000	1.624143  
540.500000	1.669545  
541.000000	1.669977  
541.500000	1.638833  
542.000000	1.614719  
542.500000	1.613507  
543.000000	1.644295  
543.500000	1.681121  
544.000000	1.729242  
544.500000	1.747674  
545.000000	1.753015  
545.500000	1.760780  
546.000000	1.800318  
546.500000	1.847204  
547.000000	1.876924  
547.500000	1.888303  
548.000000	1.895189  
548.500000	1.929878  
549.000000	1.974424  
549.500000	2.024446  
550.000000	2.061999  

