"Thermal Relax 37C_070241 - RawData-001"
"Wavelength nm.","Abs."
800.00,-0.000504
799.00,-0.000397
798.00,-0.000336
797.00,-0.000229
796.00,-0.000107
795.00,-0.000015
794.00,0.000031
793.00,0.000153
792.00,0.000275
791.00,0.000305
790.00,0.000366
789.00,0.000412
788.00,0.000504
787.00,0.000641
786.00,0.000763
785.00,0.000809
784.00,0.000885
783.00,0.001022
782.00,0.001114
781.00,0.001160
780.00,0.001221
779.00,0.001328
778.00,0.001450
777.00,0.001556
776.00,0.001526
775.00,0.001633
774.00,0.001724
773.00,0.001816
772.00,0.001984
771.00,0.002014
770.00,0.002136
769.00,0.002258
768.00,0.002365
767.00,0.002411
766.00,0.002457
765.00,0.002518
764.00,0.002594
763.00,0.002670
762.00,0.002823
761.00,0.002869
760.00,0.002884
759.00,0.002945
758.00,0.003021
757.00,0.003098
756.00,0.003204
755.00,0.003296
754.00,0.003403
753.00,0.003464
752.00,0.003647
751.00,0.003769
750.00,0.003830
749.00,0.003891
748.00,0.003998
747.00,0.004105
746.00,0.004181
745.00,0.004303
744.00,0.004425
743.00,0.004501
742.00,0.004623
741.00,0.004745
740.00,0.004791
739.00,0.004898
738.00,0.004929
737.00,0.005035
736.00,0.005112
735.00,0.005219
734.00,0.005341
733.00,0.005432
732.00,0.005539
731.00,0.005585
730.00,0.005722
729.00,0.005814
728.00,0.005875
727.00,0.005936
726.00,0.006058
725.00,0.006104
724.00,0.006195
723.00,0.006332
722.00,0.006485
721.00,0.006622
720.00,0.006714
719.00,0.006821
718.00,0.006897
717.00,0.006943
716.00,0.007080
715.00,0.007202
714.00,0.007339
713.00,0.007416
712.00,0.007553
711.00,0.007706
710.00,0.007736
709.00,0.007797
708.00,0.007935
707.00,0.008057
706.00,0.008148
705.00,0.008255
704.00,0.008377
703.00,0.008499
702.00,0.008545
701.00,0.008713
700.00,0.008850
699.00,0.008972
698.00,0.009140
697.00,0.009232
696.00,0.009277
695.00,0.009384
694.00,0.009476
693.00,0.009567
692.00,0.009705
691.00,0.009888
690.00,0.010025
689.00,0.010132
688.00,0.010193
687.00,0.010376
686.00,0.010498
685.00,0.010620
684.00,0.010696
683.00,0.010818
682.00,0.010910
681.00,0.011047
680.00,0.011246
679.00,0.011353
678.00,0.011429
677.00,0.011551
676.00,0.011703
675.00,0.011841
674.00,0.011978
673.00,0.012100
672.00,0.012268
671.00,0.012360
670.00,0.012497
669.00,0.012589
668.00,0.012680
667.00,0.012756
666.00,0.012924
665.00,0.013123
664.00,0.013275
663.00,0.013412
662.00,0.013565
661.00,0.013702
660.00,0.013809
659.00,0.013931
658.00,0.014038
657.00,0.014191
656.00,0.014420
655.00,0.014542
654.00,0.014694
653.00,0.014755
652.00,0.014938
651.00,0.015076
650.00,0.015228
649.00,0.015396
648.00,0.015533
647.00,0.015640
646.00,0.015671
645.00,0.015762
644.00,0.015839
643.00,0.015915
642.00,0.016068
641.00,0.016174
640.00,0.016281
639.00,0.016418
638.00,0.016602
637.00,0.016693
636.00,0.016861
635.00,0.017075
634.00,0.017319
633.00,0.017456
632.00,0.017532
631.00,0.017715
630.00,0.017944
629.00,0.018066
628.00,0.018219
627.00,0.018433
626.00,0.018539
625.00,0.018707
624.00,0.018860
623.00,0.018951
622.00,0.019180
621.00,0.019287
620.00,0.019485
619.00,0.019577
618.00,0.019730
617.00,0.019943
616.00,0.020096
615.00,0.020264
614.00,0.020477
613.00,0.020569
612.00,0.020767
611.00,0.020920
610.00,0.021133
609.00,0.021317
608.00,0.021393
607.00,0.021637
606.00,0.021774
605.00,0.021942
604.00,0.022095
603.00,0.022232
602.00,0.022430
601.00,0.022629
600.00,0.022827
599.00,0.022995
598.00,0.023178
597.00,0.023331
596.00,0.023483
595.00,0.023636
594.00,0.023804
593.00,0.024017
592.00,0.024185
591.00,0.024399
590.00,0.024597
589.00,0.024796
588.00,0.024979
587.00,0.025162
586.00,0.025391
585.00,0.025543
584.00,0.025742
583.00,0.025940
582.00,0.026154
581.00,0.026321
580.00,0.026581
579.00,0.026825
578.00,0.026993
577.00,0.027237
576.00,0.027451
575.00,0.027603
574.00,0.027802
573.00,0.028000
572.00,0.028137
571.00,0.028397
570.00,0.028641
569.00,0.028900
568.00,0.029099
567.00,0.029312
566.00,0.029510
565.00,0.029709
564.00,0.029907
563.00,0.030121
562.00,0.030411
561.00,0.030533
560.00,0.030807
559.00,0.031067
558.00,0.031296
557.00,0.031525
556.00,0.031769
555.00,0.031998
554.00,0.032257
553.00,0.032501
552.00,0.032745
551.00,0.033066
550.00,0.033310
549.00,0.033615
548.00,0.033859
547.00,0.034012
546.00,0.034317
545.00,0.034561
544.00,0.034821
543.00,0.035080
542.00,0.035355
541.00,0.035629
540.00,0.035904
539.00,0.036148
538.00,0.036453
537.00,0.036728
536.00,0.037308
535.00,0.037704
534.00,0.037979
533.00,0.038193
532.00,0.038467
531.00,0.038788
530.00,0.039124
529.00,0.039459
528.00,0.039795
527.00,0.040054
526.00,0.040390
525.00,0.040726
524.00,0.041016
523.00,0.041428
522.00,0.041733
521.00,0.042068
520.00,0.042465
519.00,0.042831
518.00,0.043228
517.00,0.043564
516.00,0.043976
515.00,0.044388
514.00,0.044846
513.00,0.045273
512.00,0.045700
511.00,0.046249
510.00,0.046692
509.00,0.047119
508.00,0.047653
507.00,0.048218
506.00,0.048737
505.00,0.049225
504.00,0.049805
503.00,0.050415
502.00,0.051041
501.00,0.051804
500.00,0.052536
499.00,0.053223
498.00,0.053940
497.00,0.054794
496.00,0.055603
495.00,0.056442
494.00,0.057404
493.00,0.058319
492.00,0.059326
491.00,0.060425
490.00,0.061508
489.00,0.062668
488.00,0.063873
487.00,0.065231
486.00,0.066589
485.00,0.068146
484.00,0.069717
483.00,0.071365
482.00,0.073013
481.00,0.074814
480.00,0.076599
479.00,0.078522
478.00,0.080490
477.00,0.082443
476.00,0.084579
475.00,0.086716
474.00,0.088928
473.00,0.091278
472.00,0.093597
471.00,0.095963
470.00,0.098328
469.00,0.100739
468.00,0.103333
467.00,0.105850
466.00,0.108398
465.00,0.110947
464.00,0.113541
463.00,0.116013
462.00,0.118484
461.00,0.120911
460.00,0.123367
459.00,0.125824
458.00,0.128220
457.00,0.130783
456.00,0.133102
455.00,0.135529
454.00,0.137863
453.00,0.140076
452.00,0.142288
451.00,0.144424
450.00,0.146606
449.00,0.148758
448.00,0.150879
447.00,0.152908
446.00,0.154831
445.00,0.156693
444.00,0.158493
443.00,0.160294
442.00,0.162109
441.00,0.163712
440.00,0.165390
439.00,0.167084
438.00,0.168533
437.00,0.170105
436.00,0.171616
435.00,0.173050
434.00,0.174500
433.00,0.176025
432.00,0.177429
431.00,0.178711
430.00,0.179977
429.00,0.181320
428.00,0.182480
427.00,0.183640
426.00,0.184937
425.00,0.186218
424.00,0.187531
423.00,0.188644
422.00,0.189743
421.00,0.191025
420.00,0.192215
419.00,0.193405
418.00,0.194672
417.00,0.195831
416.00,0.197449
415.00,0.198502
414.00,0.199631
413.00,0.200760
412.00,0.201706
411.00,0.203094
410.00,0.204102
409.00,0.205292
408.00,0.206467
407.00,0.207489
406.00,0.208740
405.00,0.209702
404.00,0.210999
403.00,0.212265
402.00,0.213364
401.00,0.214508
400.00,0.215927
399.00,0.217041
398.00,0.218262
397.00,0.219360
396.00,0.220398
395.00,0.221619
394.00,0.222961
393.00,0.224136
392.00,0.225327
391.00,0.226608
390.00,0.227615
389.00,0.228928
388.00,0.230026
387.00,0.231537
386.00,0.232513
385.00,0.234177
384.00,0.235229
383.00,0.236526
382.00,0.238068
381.00,0.239258
380.00,0.240402
379.00,0.242325
378.00,0.243576
377.00,0.244919
376.00,0.245605
375.00,0.247162
374.00,0.248627
373.00,0.250412
372.00,0.251785
371.00,0.253082
370.00,0.255096
369.00,0.257126
368.00,0.257904
367.00,0.258591
366.00,0.260376
365.00,0.262650
364.00,0.263977
363.00,0.264877
362.00,0.266510
361.00,0.268509
360.00,0.269547
359.00,0.271057
358.00,0.272766
357.00,0.275253
356.00,0.276917
355.00,0.278549
354.00,0.279678
353.00,0.281036
352.00,0.283035
351.00,0.284775
350.00,0.286667
349.00,0.288513
348.00,0.290161
347.00,0.292770
346.00,0.294022
345.00,0.295883
344.00,0.297363
343.00,0.300400
342.00,0.301498
341.00,0.304642
340.00,0.309570
339.00,0.308289
338.00,0.309830
337.00,0.312271
336.00,0.313736
335.00,0.315826
334.00,0.318390
333.00,0.320541
332.00,0.323563
331.00,0.325684
330.00,0.327484
329.00,0.329773
328.00,0.332047
327.00,0.334335
326.00,0.337341
325.00,0.339554
324.00,0.342224
323.00,0.344803
322.00,0.347366
321.00,0.350403
320.00,0.351761
319.00,0.355057
318.00,0.358078
317.00,0.361771
316.00,0.364609
315.00,0.367355
314.00,0.369690
313.00,0.372437
312.00,0.375687
311.00,0.377777
310.00,0.381836
309.00,0.384583
308.00,0.387512
307.00,0.391342
306.00,0.394867
305.00,0.398575
304.00,0.402008
303.00,0.405334
302.00,0.408371
301.00,0.412903
300.00,0.417068
299.00,0.420517
298.00,0.424622
297.00,0.428513
296.00,0.432770
295.00,0.436584
294.00,0.440826
293.00,0.444946
292.00,0.450058
291.00,0.454636
290.00,0.459274
289.00,0.463531
288.00,0.468872
287.00,0.474121
286.00,0.479309
285.00,0.483917
284.00,0.490005
283.00,0.495590
282.00,0.500748
281.00,0.506638
280.00,0.512482
279.00,0.518311
278.00,0.524506
277.00,0.530167
276.00,0.537140
275.00,0.544312
274.00,0.550735
273.00,0.558350
272.00,0.566223
271.00,0.573166
270.00,0.581894
269.00,0.591141
268.00,0.599091
267.00,0.607208
266.00,0.616470
265.00,0.626144
264.00,0.636337
263.00,0.645508
262.00,0.655563
261.00,0.666351
260.00,0.676376
259.00,0.687820
258.00,0.698318
257.00,0.710861
256.00,0.722885
255.00,0.734573
254.00,0.747269
253.00,0.759048
252.00,0.771851
251.00,0.785950
250.00,0.800644
249.00,0.813446
248.00,0.827240
247.00,0.840836
246.00,0.855209
245.00,0.868210
244.00,0.882263
243.00,0.895660
242.00,0.909058
241.00,0.920502
240.00,0.932724
239.00,0.945511
238.00,0.956177
237.00,0.967804
236.00,0.978394
235.00,0.990189
234.00,0.998550
233.00,1.006378
232.00,1.013824
231.00,1.022873
230.00,1.029907
229.00,1.034042
228.00,1.041870
227.00,1.045380
226.00,1.051208
225.00,1.055832
224.00,1.060745
223.00,1.065659
222.00,1.070862
221.00,1.076279
220.00,1.083344
219.00,1.088226
218.00,1.093246
217.00,1.098099
216.00,1.107132
215.00,1.113586
214.00,1.121155
213.00,1.126617
212.00,1.135590
211.00,1.141266
210.00,1.146545
209.00,1.157333
208.00,1.166885
207.00,1.175537
206.00,1.187332
205.00,1.195923
204.00,1.206726
203.00,1.218262
202.00,1.229385
201.00,1.245789
200.00,1.257187
199.00,1.270386
198.00,1.278946
197.00,1.293152
196.00,1.310165
195.00,1.336563
