"uv vis of CdS 5 s - RawData-001"
"Wavelength nm.","Abs."
195.00,-1.682083
196.00,-2.532867
197.00,-4.000000
198.00,-3.441650
199.00,-0.817291
200.00,-1.780029
201.00,-1.417526
202.00,1.585052
203.00,-2.931992
204.00,-4.000000
205.00,-4.000000
206.00,-2.786270
207.00,-0.011902
208.00,-4.000000
209.00,-2.567276
210.00,-4.000000
211.00,-0.345413
212.00,0.852844
213.00,1.039856
214.00,1.425430
215.00,1.935959
216.00,1.064148
217.00,1.886688
218.00,1.519318
219.00,0.673798
220.00,0.741257
221.00,0.475342
222.00,0.635483
223.00,1.370193
224.00,0.949310
225.00,1.132950
226.00,0.622192
227.00,0.980087
228.00,0.655640
229.00,0.895599
230.00,1.005676
231.00,1.139236
232.00,0.759720
233.00,0.896912
234.00,0.909012
235.00,0.819016
236.00,0.826477
237.00,0.762756
238.00,0.693771
239.00,0.631592
240.00,0.589264
241.00,0.548111
242.00,0.505066
243.00,0.462357
244.00,0.429489
245.00,0.398285
246.00,0.368927
247.00,0.344528
248.00,0.322159
249.00,0.303574
250.00,0.288605
251.00,0.274826
252.00,0.264191
253.00,0.254395
254.00,0.246262
255.00,0.239532
256.00,0.233826
257.00,0.228638
258.00,0.226105
259.00,0.223572
260.00,0.221268
261.00,0.219070
262.00,0.217194
263.00,0.215805
264.00,0.214813
265.00,0.215118
266.00,0.215668
267.00,0.214157
268.00,0.213791
269.00,0.214355
270.00,0.213440
271.00,0.211914
272.00,0.210693
273.00,0.210083
274.00,0.207886
275.00,0.205582
276.00,0.203781
277.00,0.201447
278.00,0.199570
279.00,0.197739
280.00,0.194000
281.00,0.190781
282.00,0.186951
283.00,0.183167
284.00,0.178162
285.00,0.173096
286.00,0.168457
287.00,0.163849
288.00,0.158905
289.00,0.153442
290.00,0.148071
291.00,0.143295
292.00,0.138214
293.00,0.133118
294.00,0.127548
295.00,0.122467
296.00,0.117310
297.00,0.112717
298.00,0.108185
299.00,0.104126
300.00,0.099380
301.00,0.095047
302.00,0.091080
303.00,0.087280
304.00,0.083954
305.00,0.080658
306.00,0.078461
307.00,0.074982
308.00,0.072357
309.00,0.069809
310.00,0.067764
311.00,0.065994
312.00,0.064087
313.00,0.062057
314.00,0.060455
315.00,0.058746
316.00,0.058014
317.00,0.056458
318.00,0.054672
319.00,0.052963
320.00,0.052185
321.00,0.050476
322.00,0.049454
323.00,0.048782
324.00,0.047699
325.00,0.046188
326.00,0.045074
327.00,0.044571
328.00,0.043289
329.00,0.042740
330.00,0.041275
331.00,0.041077
332.00,0.040436
333.00,0.039810
334.00,0.038315
335.00,0.037262
336.00,0.036697
337.00,0.035873
338.00,0.035080
339.00,0.035110
340.00,0.036499
341.00,0.034164
342.00,0.033539
343.00,0.032455
344.00,0.032135
345.00,0.031784
346.00,0.031128
347.00,0.030151
348.00,0.030075
349.00,0.029343
350.00,0.029053
351.00,0.028305
352.00,0.027710
353.00,0.027649
354.00,0.027481
355.00,0.026840
356.00,0.026566
357.00,0.026672
358.00,0.025711
359.00,0.025375
360.00,0.024719
361.00,0.024429
362.00,0.023987
363.00,0.024063
364.00,0.023453
365.00,0.023041
366.00,0.022247
367.00,0.021820
368.00,0.021561
369.00,0.021286
370.00,0.020798
371.00,0.020798
372.00,0.020462
373.00,0.019989
374.00,0.019852
375.00,0.019608
376.00,0.019699
377.00,0.019028
378.00,0.018890
379.00,0.019104
380.00,0.018799
381.00,0.018433
382.00,0.018295
383.00,0.018066
384.00,0.017990
385.00,0.017838
386.00,0.017654
387.00,0.017319
388.00,0.016937
389.00,0.016678
390.00,0.016785
391.00,0.016556
392.00,0.016418
393.00,0.016159
394.00,0.016083
395.00,0.015976
396.00,0.015610
397.00,0.015533
398.00,0.015442
399.00,0.015167
400.00,0.015274
401.00,0.015182
402.00,0.014984
403.00,0.014877
404.00,0.014801
405.00,0.014648
406.00,0.014511
407.00,0.014206
408.00,0.014206
409.00,0.014053
410.00,0.014191
411.00,0.014053
412.00,0.013824
413.00,0.013840
414.00,0.013733
415.00,0.013565
416.00,0.013733
417.00,0.014191
418.00,0.014420
419.00,0.014389
420.00,0.014267
421.00,0.014359
422.00,0.014297
423.00,0.014404
424.00,0.014374
425.00,0.014481
426.00,0.014572
427.00,0.014481
428.00,0.014542
429.00,0.014557
430.00,0.014511
431.00,0.014572
432.00,0.014496
433.00,0.014404
434.00,0.014313
435.00,0.014236
436.00,0.014267
437.00,0.014130
438.00,0.013977
439.00,0.013916
440.00,0.013824
441.00,0.013626
442.00,0.013580
443.00,0.013367
444.00,0.013275
445.00,0.013062
446.00,0.012924
447.00,0.012817
448.00,0.012711
449.00,0.012589
450.00,0.012375
451.00,0.012299
452.00,0.012207
453.00,0.012100
454.00,0.011978
455.00,0.011917
456.00,0.011871
457.00,0.011948
458.00,0.011963
459.00,0.011917
460.00,0.011948
461.00,0.011871
462.00,0.011826
463.00,0.011765
464.00,0.011703
465.00,0.011612
466.00,0.011505
467.00,0.011444
468.00,0.011322
469.00,0.011276
470.00,0.011215
471.00,0.011292
472.00,0.011230
473.00,0.011230
474.00,0.011215
475.00,0.011230
476.00,0.011261
477.00,0.011215
478.00,0.011276
479.00,0.011368
480.00,0.011383
481.00,0.011459
482.00,0.011520
483.00,0.011551
484.00,0.011505
485.00,0.011490
486.00,0.011520
487.00,0.011581
488.00,0.011475
489.00,0.011444
490.00,0.011444
491.00,0.011383
492.00,0.011337
493.00,0.011246
494.00,0.011093
495.00,0.011017
496.00,0.010941
497.00,0.010925
498.00,0.010864
499.00,0.010834
500.00,0.010834
501.00,0.010803
502.00,0.010696
503.00,0.010712
504.00,0.010666
505.00,0.010605
506.00,0.010544
507.00,0.010468
508.00,0.010422
509.00,0.010300
510.00,0.010269
511.00,0.010208
512.00,0.010117
513.00,0.010040
514.00,0.009949
515.00,0.009903
516.00,0.009796
517.00,0.009750
518.00,0.009750
519.00,0.009659
520.00,0.009583
521.00,0.009476
522.00,0.009399
523.00,0.009445
524.00,0.009369
525.00,0.009338
526.00,0.009247
527.00,0.009186
528.00,0.009155
529.00,0.009018
530.00,0.009018
531.00,0.008942
532.00,0.008850
533.00,0.008865
534.00,0.008850
535.00,0.008789
536.00,0.008606
537.00,0.008713
538.00,0.008820
539.00,0.008804
540.00,0.008682
541.00,0.008667
542.00,0.008606
543.00,0.008575
544.00,0.008469
545.00,0.008423
546.00,0.008392
547.00,0.008301
548.00,0.008316
549.00,0.008270
550.00,0.008148
551.00,0.008163
552.00,0.008133
553.00,0.008133
554.00,0.008133
555.00,0.008194
556.00,0.008224
557.00,0.008179
558.00,0.008179
559.00,0.008224
560.00,0.008286
561.00,0.008316
562.00,0.008347
563.00,0.008392
564.00,0.008408
565.00,0.008453
566.00,0.008545
567.00,0.008560
568.00,0.008606
569.00,0.008545
570.00,0.008545
571.00,0.008514
572.00,0.008408
573.00,0.008484
574.00,0.008484
575.00,0.008560
576.00,0.008591
577.00,0.008575
578.00,0.008469
579.00,0.008469
580.00,0.008530
581.00,0.008560
582.00,0.008545
583.00,0.008530
584.00,0.008560
585.00,0.008530
586.00,0.008499
587.00,0.008453
588.00,0.008453
589.00,0.008453
590.00,0.008408
591.00,0.008392
592.00,0.008392
593.00,0.008438
594.00,0.008362
595.00,0.008362
596.00,0.008362
597.00,0.008286
598.00,0.008194
599.00,0.008179
600.00,0.008194
601.00,0.008209
602.00,0.008133
603.00,0.008148
604.00,0.008163
605.00,0.008179
606.00,0.008148
607.00,0.008148
608.00,0.008102
609.00,0.008194
610.00,0.008240
611.00,0.008270
612.00,0.008270
613.00,0.008255
614.00,0.008377
615.00,0.008423
616.00,0.008438
617.00,0.008423
618.00,0.008408
619.00,0.008438
620.00,0.008499
621.00,0.008423
622.00,0.008469
623.00,0.008484
624.00,0.008499
625.00,0.008545
626.00,0.008575
627.00,0.008621
628.00,0.008575
629.00,0.008560
630.00,0.008636
631.00,0.008667
632.00,0.008606
633.00,0.008682
634.00,0.008621
635.00,0.008560
636.00,0.008560
637.00,0.008545
638.00,0.008560
639.00,0.008545
640.00,0.008560
641.00,0.008575
642.00,0.008621
643.00,0.008621
644.00,0.008636
645.00,0.008636
646.00,0.008652
647.00,0.008728
648.00,0.008774
649.00,0.008789
650.00,0.008789
651.00,0.008759
652.00,0.008804
653.00,0.008774
654.00,0.008774
655.00,0.008789
656.00,0.008835
657.00,0.008850
658.00,0.008911
659.00,0.009003
660.00,0.009003
661.00,0.009018
662.00,0.009064
663.00,0.009155
664.00,0.009232
665.00,0.009232
666.00,0.009155
667.00,0.009140
668.00,0.009171
669.00,0.009201
670.00,0.009277
671.00,0.009338
672.00,0.009415
673.00,0.009430
674.00,0.009460
675.00,0.009583
676.00,0.009644
677.00,0.009659
678.00,0.009827
679.00,0.009918
680.00,0.009979
681.00,0.009995
682.00,0.010025
683.00,0.009995
684.00,0.010040
685.00,0.010101
686.00,0.010101
687.00,0.010071
688.00,0.009995
689.00,0.010010
690.00,0.010010
691.00,0.009933
692.00,0.009888
693.00,0.009796
694.00,0.009766
695.00,0.009705
696.00,0.009689
697.00,0.009628
698.00,0.009598
699.00,0.009628
700.00,0.009613
701.00,0.009613
702.00,0.009567
703.00,0.009613
704.00,0.009613
705.00,0.009644
706.00,0.009628
707.00,0.009628
708.00,0.009689
709.00,0.009750
710.00,0.009781
711.00,0.009903
712.00,0.009964
713.00,0.009995
714.00,0.010025
715.00,0.010056
716.00,0.010071
717.00,0.010101
718.00,0.010162
719.00,0.010132
720.00,0.010101
721.00,0.010117
722.00,0.010117
723.00,0.010117
724.00,0.010132
725.00,0.010101
726.00,0.010162
727.00,0.010086
728.00,0.010025
729.00,0.010086
730.00,0.010010
731.00,0.009918
732.00,0.009918
733.00,0.009903
734.00,0.009811
735.00,0.009750
736.00,0.009659
737.00,0.009598
738.00,0.009476
739.00,0.009476
740.00,0.009430
741.00,0.009338
742.00,0.009293
743.00,0.009186
744.00,0.009033
745.00,0.008972
746.00,0.008850
747.00,0.008713
748.00,0.008667
749.00,0.008514
750.00,0.008423
751.00,0.008301
752.00,0.008163
753.00,0.007996
754.00,0.007889
755.00,0.007706
756.00,0.007584
757.00,0.007584
758.00,0.007599
759.00,0.007568
760.00,0.007538
761.00,0.007431
762.00,0.007324
763.00,0.007202
764.00,0.007080
765.00,0.006897
766.00,0.006729
767.00,0.006561
768.00,0.006454
769.00,0.006241
770.00,0.006104
771.00,0.006058
772.00,0.005951
773.00,0.005859
774.00,0.005737
775.00,0.005615
776.00,0.005447
777.00,0.005325
778.00,0.005173
779.00,0.005035
780.00,0.004852
781.00,0.004654
782.00,0.004486
783.00,0.004303
784.00,0.004120
785.00,0.003967
786.00,0.003799
787.00,0.003616
788.00,0.003433
789.00,0.003235
790.00,0.003067
791.00,0.002838
792.00,0.002487
793.00,0.002243
794.00,0.002045
795.00,0.001831
796.00,0.001648
797.00,0.001297
798.00,0.001007
799.00,0.000763
800.00,0.000458
