PE FL                   SPECTRUM    ASCII       PEDS        1.60        
  -1
01#174.SP
02/03/17
05:17:14.00
02/03/17
05:17:48.00


429.500000
1









LS55
310.00
5.00
5.00
SCAN
1
20
100
100
0
200
0
1
0
1
7
ON
468 310 
1 0 0
#HDR
-1
-1
#GR
NM

0.00002384185791015625
0.0
340.000000
0.500000
180
8
1.200310
-0.000651
#DATA
340.000000	-0.000000 
340.500000	0.001659  
341.000000	0.001954  
341.500000	0.001363  
342.000000	0.001106  
342.500000	0.000863  
343.000000	0.000409  
343.500000	-0.000053 
344.000000	-0.000060 
344.500000	-0.000181 
345.000000	0.000022  
345.500000	0.001022  
346.000000	0.002136  
346.500000	0.002136  
347.000000	0.001022  
347.500000	-0.000098 
348.000000	-0.000651 
348.500000	0.000863  
349.000000	0.004015  
349.500000	0.006575  
350.000000	0.005500  
350.500000	0.002196  
351.000000	-0.000196 
351.500000	-0.000363 
352.000000	0.000000  
352.500000	0.000000  
353.000000	-0.000060 
353.500000	-0.000053 
354.000000	0.000409  
354.500000	0.000984  
355.000000	0.000848  
355.500000	0.000712  
356.000000	0.001712  
356.500000	0.002984  
357.000000	0.003325  
357.500000	0.002250  
358.000000	0.001287  
358.500000	0.000575  
359.000000	0.000204  
359.500000	-0.000242 
360.000000	-0.000174 
360.500000	0.000242  
361.000000	0.001689  
361.500000	0.003295  
362.000000	0.004454  
362.500000	0.004325  
363.000000	0.003386  
363.500000	0.001704  
364.000000	-0.000598 
364.500000	0.000015  
365.000000	0.005598  
365.500000	0.009681  
366.000000	0.013340  
366.500000	0.012674  
367.000000	0.014469  
367.500000	0.011795  
368.000000	0.010856  
368.500000	0.008219  
369.000000	0.012318  
369.500000	0.014022  
370.000000	0.013727  
370.500000	0.013462  
371.000000	0.019931  
371.500000	0.027234  
372.000000	0.026022  
372.500000	0.026500  
373.000000	0.037303  
373.500000	0.060219  
374.000000	0.067272  
374.500000	0.058765  
375.000000	0.040583  
375.500000	0.036886  
376.000000	0.042477  
376.500000	0.059863  
377.000000	0.071265  
377.500000	0.083757  
378.000000	0.095393  
378.500000	0.098469  
379.000000	0.092878  
379.500000	0.094325  
380.000000	0.112856  
380.500000	0.130833  
381.000000	0.136893  
381.500000	0.140090  
382.000000	0.153780  
382.500000	0.167833  
383.000000	0.172560  
383.500000	0.178984  
384.000000	0.196795  
384.500000	0.221696  
385.000000	0.228007  
385.500000	0.211636  
386.000000	0.198257  
386.500000	0.213303  
387.000000	0.247083  
387.500000	0.267000  
388.000000	0.268704  
388.500000	0.267053  
389.000000	0.273333  
389.500000	0.284242  
390.000000	0.304689  
390.500000	0.329583  
391.000000	0.348333  
391.500000	0.347765  
392.000000	0.333484  
392.500000	0.326166  
393.000000	0.338568  
393.500000	0.352507  
394.000000	0.361560  
394.500000	0.373196  
395.000000	0.400174  
395.500000	0.420583  
396.000000	0.428500  
396.500000	0.431166  
397.000000	0.439734  
397.500000	0.443757  
398.000000	0.448060  
398.500000	0.470659  
399.000000	0.519409  
399.500000	0.559121  
400.000000	0.558780  
400.500000	0.522037  
401.000000	0.491712  
401.500000	0.490227  
402.000000	0.513727  
402.500000	0.544522  
403.000000	0.566628  
403.500000	0.577628  
404.000000	0.575515  
404.500000	0.587909  
405.000000	0.608886  
405.500000	0.624939  
406.000000	0.629606  
406.500000	0.640734  
407.000000	0.668015  
407.500000	0.686969  
408.000000	0.720416  
408.500000	0.741378  
409.000000	0.753848  
409.500000	0.731765  
410.000000	0.739121  
410.500000	0.767886  
411.000000	0.810924  
411.500000	0.824666  
412.000000	0.834310  
412.500000	0.839287  
413.000000	0.845507  
413.500000	0.852696  
414.000000	0.860757  
414.500000	0.867227  
415.000000	0.875840  
415.500000	0.898189  
416.000000	0.921363  
416.500000	0.940303  
417.000000	0.946037  
417.500000	0.946666  
418.000000	0.935416  
418.500000	0.927424  
419.000000	0.940643  
419.500000	0.972257  
420.000000	1.009704  
420.500000	1.022704  
421.000000	1.014840  
421.500000	1.006015  
422.000000	1.020992  
422.500000	1.053568  
423.000000	1.080598  
423.500000	1.102446  
424.000000	1.112742  
424.500000	1.119113  
425.000000	1.112227  
425.500000	1.110810  
426.000000	1.119696  
426.500000	1.144469  
427.000000	1.180780  
427.500000	1.200310  
428.000000	1.198356  
428.500000	1.173424  
429.000000	1.151939  
429.500000	1.137000  

