PE FL                   SPECTRUM    ASCII       PEDS        1.60        
  -1
01#177.SP
02/03/17
05:20:22.00
02/03/17
05:20:41.00


384.500000
1









LS55
310.00
5.00
5.00
SCAN
1
20
100
100
0
200
0
1
0
1
7
ON
531 310 
1 0 0
#HDR
-1
-1
#GR
NM

0.00002384185791015625
0.0
350.000000
0.500000
70
8
0.001151
-0.000121
#DATA
350.000000	0.000000  
350.500000	0.000000  
351.000000	0.000000  
351.500000	0.000000  
352.000000	0.000000  
352.500000	0.000000  
353.000000	0.000000  
353.500000	0.000000  
354.000000	0.000000  
354.500000	0.000000  
355.000000	0.000000  
355.500000	0.000000  
356.000000	0.000000  
356.500000	0.000000  
357.000000	0.000000  
357.500000	0.000000  
358.000000	0.000000  
358.500000	0.000000  
359.000000	0.000000  
359.500000	0.000000  
360.000000	0.000000  
360.500000	0.000000  
361.000000	0.000000  
361.500000	0.000000  
362.000000	0.000000  
362.500000	0.000000  
363.000000	0.000000  
363.500000	0.000000  
364.000000	0.000000  
364.500000	-0.000121 
365.000000	0.000075  
365.500000	0.000613  
366.000000	0.001151  
366.500000	0.000984  
367.000000	0.000409  
367.500000	-0.000053 
368.000000	-0.000060 
368.500000	0.000000  
369.000000	0.000000  
369.500000	0.000000  
370.000000	0.000000  
370.500000	0.000000  
371.000000	0.000000  
371.500000	0.000000  
372.000000	0.000000  
372.500000	0.000000  
373.000000	0.000000  
373.500000	0.000000  
374.000000	0.000000  
374.500000	0.000000  
375.000000	0.000000  
375.500000	0.000000  
376.000000	0.000000  
376.500000	0.000000  
377.000000	0.000000  
377.500000	0.000000  
378.000000	0.000000  
378.500000	0.000000  
379.000000	0.000000  
379.500000	0.000000  
380.000000	0.000000  
380.500000	0.000000  
381.000000	0.000000  
381.500000	0.000000  
382.000000	0.000000  
382.500000	0.000000  
383.000000	0.000000  
383.500000	0.000000  
384.000000	0.000000  
384.500000	0.000000  

