PE FL                   SPECTRUM    ASCII       PEDS        1.60        
  -1
01#173.SP
02/03/17
05:16:06.00
02/03/17
05:16:54.00


464.500000
1









LS55
310.00
5.00
5.00
SCAN
1
20
100
100
0
200
0
1
0
1
7
ON
600 310 
1 0 0
#HDR
-1
-1
#GR
NM

0.00002384185791015625
0.0
340.000000
0.500000
250
8
1.792174
-0.000303
#DATA
340.000000	0.000000  
340.500000	0.000401  
341.000000	0.000712  
341.500000	0.000712  
342.000000	0.000340  
342.500000	0.000007  
343.000000	-0.000060 
343.500000	0.000000  
344.000000	0.000000  
344.500000	0.000000  
345.000000	0.000000  
345.500000	-0.000303 
346.000000	0.000340  
346.500000	0.001181  
347.000000	0.002037  
347.500000	0.002590  
348.000000	0.003295  
348.500000	0.003151  
349.000000	0.001295  
349.500000	0.000659  
350.000000	0.002295  
350.500000	0.004590  
351.000000	0.003977  
351.500000	0.002250  
352.000000	0.000553  
352.500000	0.000992  
353.000000	0.001765  
353.500000	0.003863  
354.000000	0.004742  
354.500000	0.004643  
355.000000	0.004393  
355.500000	0.008151  
356.000000	0.012212  
356.500000	0.012772  
357.000000	0.007590  
357.500000	0.001151  
358.000000	0.000075  
358.500000	0.002931  
359.000000	0.005265  
359.500000	0.005901  
360.000000	0.008159  
360.500000	0.009878  
361.000000	0.010446  
361.500000	0.010946  
362.000000	0.012810  
362.500000	0.015280  
363.000000	0.014803  
363.500000	0.011696  
364.000000	0.009196  
364.500000	0.006977  
365.000000	0.006045  
365.500000	0.009446  
366.000000	0.017689  
366.500000	0.020704  
367.000000	0.019833  
367.500000	0.014530  
368.000000	0.014454  
368.500000	0.018795  
369.000000	0.029545  
369.500000	0.036181  
370.000000	0.034772  
370.500000	0.030969  
371.000000	0.036219  
371.500000	0.047696  
372.000000	0.050696  
372.500000	0.051045  
373.000000	0.058007  
373.500000	0.073219  
374.000000	0.082416  
374.500000	0.082295  
375.000000	0.077045  
375.500000	0.075825  
376.000000	0.087234  
376.500000	0.109393  
377.000000	0.136219  
377.500000	0.155113  
378.000000	0.156901  
378.500000	0.153568  
379.000000	0.155090  
379.500000	0.170810  
380.000000	0.178166  
380.500000	0.180234  
381.000000	0.179757  
381.500000	0.192840  
382.000000	0.201803  
382.500000	0.208931  
383.000000	0.214318  
383.500000	0.222424  
384.000000	0.232348  
384.500000	0.245674  
385.000000	0.255537  
385.500000	0.259416  
386.000000	0.271007  
386.500000	0.288924  
387.000000	0.304818  
387.500000	0.304310  
388.000000	0.310196  
388.500000	0.326901  
389.000000	0.352651  
389.500000	0.360719  
390.000000	0.366333  
390.500000	0.366613  
391.000000	0.381765  
391.500000	0.410348  
392.000000	0.434106  
392.500000	0.435909  
393.000000	0.432045  
393.500000	0.448522  
394.000000	0.476371  
394.500000	0.502393  
395.000000	0.505181  
395.500000	0.495507  
396.000000	0.487318  
396.500000	0.511643  
397.000000	0.563583  
397.500000	0.606666  
398.000000	0.618378  
398.500000	0.623348  
399.000000	0.654234  
399.500000	0.691242  
400.000000	0.711803  
400.500000	0.692015  
401.000000	0.672742  
401.500000	0.664598  
402.000000	0.681962  
402.500000	0.697674  
403.000000	0.736136  
403.500000	0.782598  
404.000000	0.823560  
404.500000	0.830181  
405.000000	0.824810  
405.500000	0.823060  
406.000000	0.834090  
406.500000	0.840734  
407.000000	0.844515  
407.500000	0.843772  
408.000000	0.850818  
408.500000	0.875795  
409.000000	0.908901  
409.500000	0.933598  
410.000000	0.925393  
410.500000	0.905507  
411.000000	0.894075  
411.500000	0.927234  
412.000000	0.970719  
412.500000	1.006121  
413.000000	1.002916  
413.500000	0.995128  
414.000000	1.003704  
414.500000	1.046507  
415.000000	1.106674  
415.500000	1.148295  
416.000000	1.157712  
416.500000	1.152515  
417.000000	1.166681  
417.500000	1.190992  
418.000000	1.213916  
418.500000	1.228340  
419.000000	1.248878  
419.500000	1.274113  
420.000000	1.300181  
420.500000	1.326803  
421.000000	1.338939  
421.500000	1.333590  
422.000000	1.328553  
422.500000	1.327060  
423.000000	1.344325  
423.500000	1.367871  
424.000000	1.412689  
424.500000	1.426522  
425.000000	1.424462  
425.500000	1.420659  
426.000000	1.461303  
426.500000	1.490340  
427.000000	1.484121  
427.500000	1.443636  
428.000000	1.425007  
428.500000	1.449136  
429.000000	1.525621  
429.500000	1.593628  
430.000000	1.635575  
430.500000	1.633545  
431.000000	1.630053  
431.500000	1.631590  
432.000000	1.652939  
432.500000	1.660439  
433.000000	1.662651  
433.500000	1.663969  
434.000000	1.677068  
434.500000	1.704969  
435.000000	1.725856  
435.500000	1.719053  
436.000000	1.706492  
436.500000	1.708393  
437.000000	1.727416  
437.500000	1.740295  
438.000000	1.721378  
438.500000	1.706727  
439.000000	1.713825  
439.500000	1.736204  
440.000000	1.741068  
440.500000	1.751924  
441.000000	1.759568  
441.500000	1.759045  
442.000000	1.746477  
442.500000	1.737090  
443.000000	1.759257  
443.500000	1.768931  
444.000000	1.784659  
444.500000	1.781090  
445.000000	1.792174  
445.500000	1.772356  
446.000000	1.764628  
446.500000	1.756113  
447.000000	1.761810  
447.500000	1.735568  
448.000000	1.730681  
448.500000	1.746530  
449.000000	1.770825  
449.500000	1.777484  
450.000000	1.772431  
450.500000	1.782128  
451.000000	1.761151  
451.500000	1.723833  
452.000000	1.679803  
452.500000	1.674984  
453.000000	1.669803  
453.500000	1.685651  
454.000000	1.697727  
454.500000	1.703712  
455.000000	1.710659  
455.500000	1.720893  
456.000000	1.732022  
456.500000	1.692083  
457.000000	1.646878  
457.500000	1.639954  
458.000000	1.670416  
458.500000	1.680022  
459.000000	1.653833  
459.500000	1.629742  
460.000000	1.626234  
460.500000	1.651219  
461.000000	1.671083  
461.500000	1.683037  
462.000000	1.661522  
462.500000	1.647659  
463.000000	1.645272  
463.500000	1.647234  
464.000000	1.614856  
464.500000	1.548000  

