PE FL                   SPECTRUM    ASCII       PEDS        1.60        
  -1
01#175.SP
02/03/17
05:18:45.00
02/03/17
05:18:58.00


429.500000
1









LS55
310.00
5.00
5.00
SCAN
1
20
100
100
0
200
0
1
0
1
7
ON
434 310 
1 0 0
#HDR
-1
-1
#GR
NM

0.00002384185791015625
0.0
400.000000
0.500000
60
8
0.018553
0.000000
#DATA
400.000000	0.000000 
400.500000	0.000946 
401.000000	0.002712 
401.500000	0.004007 
402.000000	0.003681 
402.500000	0.001742 
403.000000	0.000492 
403.500000	0.001628 
404.000000	0.003977 
404.500000	0.004848 
405.000000	0.003128 
405.500000	0.000651 
406.000000	0.001348 
406.500000	0.004075 
407.000000	0.005659 
407.500000	0.003363 
408.000000	0.000818 
408.500000	0.001310 
409.000000	0.004454 
409.500000	0.007333 
410.000000	0.007409 
410.500000	0.007583 
411.000000	0.008143 
411.500000	0.008704 
412.000000	0.007060 
412.500000	0.004303 
413.000000	0.002083 
413.500000	0.003840 
414.000000	0.007522 
414.500000	0.010393 
415.000000	0.010575 
415.500000	0.009015 
416.000000	0.006916 
416.500000	0.008893 
417.000000	0.011840 
417.500000	0.013825 
418.000000	0.009378 
418.500000	0.009196 
419.000000	0.012090 
419.500000	0.015825 
420.000000	0.010287 
420.500000	0.008590 
421.000000	0.009787 
421.500000	0.015500 
422.000000	0.015939 
422.500000	0.015416 
423.000000	0.011636 
423.500000	0.007022 
424.000000	0.005212 
424.500000	0.007530 
425.000000	0.009583 
425.500000	0.007295 
426.000000	0.002909 
426.500000	0.003295 
427.000000	0.007886 
427.500000	0.016242 
428.000000	0.018553 
428.500000	0.016166 
429.000000	0.009590 
429.500000	0.004000 

