PE FL                   SPECTRUM    ASCII       PEDS        1.60        
  -1
01#172.SP
02/03/17
05:12:30.00
02/03/17
05:15:18.00


600.000000
1









LS55
310.00
5.00
5.00
SCAN
1
20
100
100
0
100
0
1
0
1
7
ON
600 365 
1 0 0
#HDR
-1
-1
#GR
NM

0.00002384185791015625
0.0
340.000000
0.500000
521
8
2.492901
-0.000000
#DATA
340.000000	-0.000000 
340.500000	0.001636  
341.000000	0.003946  
341.500000	0.007439  
342.000000	0.008893  
342.500000	0.007060  
343.000000	0.004757  
343.500000	0.004522  
344.000000	0.004924  
344.500000	0.003090  
345.000000	0.000863  
345.500000	0.000613  
346.000000	0.002431  
346.500000	0.003106  
347.000000	0.003174  
347.500000	0.002590  
348.000000	0.002015  
348.500000	0.001787  
349.000000	0.002333  
349.500000	0.003515  
350.000000	0.004083  
350.500000	0.003189  
351.000000	0.001166  
351.500000	0.000636  
352.000000	0.002484  
352.500000	0.005992  
353.000000	0.008128  
353.500000	0.008568  
354.000000	0.007015  
354.500000	0.005530  
355.000000	0.006068  
355.500000	0.009477  
356.000000	0.011287  
356.500000	0.009734  
357.000000	0.005469  
357.500000	0.003477  
358.000000	0.007113  
358.500000	0.013863  
359.000000	0.017189  
359.500000	0.013818  
360.000000	0.011037  
360.500000	0.013742  
361.000000	0.021098  
361.500000	0.023196  
362.000000	0.020583  
362.500000	0.016287  
363.000000	0.014393  
363.500000	0.014340  
364.000000	0.020287  
364.500000	0.027303  
365.000000	0.034401  
365.500000	0.036060  
366.000000	0.035674  
366.500000	0.034287  
367.000000	0.036545  
367.500000	0.042234  
368.000000	0.051659  
368.500000	0.059295  
369.000000	0.065000  
369.500000	0.068196  
370.000000	0.070719  
370.500000	0.073962  
371.000000	0.075863  
371.500000	0.075234  
372.000000	0.077431  
372.500000	0.084022  
373.000000	0.099378  
373.500000	0.115530  
374.000000	0.126893  
374.500000	0.125333  
375.000000	0.124272  
375.500000	0.132424  
376.000000	0.154545  
376.500000	0.174015  
377.000000	0.177621  
377.500000	0.173621  
378.000000	0.177189  
378.500000	0.196015  
379.000000	0.215757  
379.500000	0.229189  
380.000000	0.231136  
380.500000	0.231128  
381.000000	0.236962  
381.500000	0.252666  
382.000000	0.278984  
382.500000	0.300325  
383.000000	0.309083  
383.500000	0.315560  
384.000000	0.325022  
384.500000	0.341931  
385.000000	0.358954  
385.500000	0.384393  
386.000000	0.402053  
386.500000	0.415583  
387.000000	0.418613  
387.500000	0.430628  
388.000000	0.443613  
388.500000	0.462090  
389.000000	0.483015  
389.500000	0.509424  
390.000000	0.529022  
390.500000	0.537643  
391.000000	0.548318  
391.500000	0.564196  
392.000000	0.583340  
392.500000	0.606393  
393.000000	0.635053  
393.500000	0.666204  
394.000000	0.699719  
394.500000	0.723106  
395.000000	0.736469  
395.500000	0.740749  
396.000000	0.738037  
396.500000	0.745780  
397.000000	0.767636  
397.500000	0.792189  
398.000000	0.812765  
398.500000	0.840083  
399.000000	0.866143  
399.500000	0.883234  
400.000000	0.881469  
400.500000	0.884333  
401.000000	0.898765  
401.500000	0.925106  
402.000000	0.952909  
402.500000	0.984000  
403.000000	1.002545  
403.500000	1.012287  
404.000000	1.021810  
404.500000	1.049992  
405.000000	1.073136  
405.500000	1.098212  
406.000000	1.122280  
406.500000	1.170522  
407.000000	1.214568  
407.500000	1.255022  
408.000000	1.261401  
408.500000	1.270492  
409.000000	1.285613  
409.500000	1.314340  
410.000000	1.326348  
410.500000	1.326000  
411.000000	1.338810  
411.500000	1.365727  
412.000000	1.387007  
412.500000	1.405151  
413.000000	1.430424  
413.500000	1.462416  
414.000000	1.483856  
414.500000	1.504886  
415.000000	1.527303  
415.500000	1.569242  
416.000000	1.616151  
416.500000	1.662121  
417.000000	1.670113  
417.500000	1.663696  
418.000000	1.672371  
418.500000	1.718060  
419.000000	1.768484  
419.500000	1.829431  
420.000000	1.870772  
420.500000	1.902840  
421.000000	1.900045  
421.500000	1.896954  
422.000000	1.896363  
422.500000	1.916272  
423.000000	1.944219  
423.500000	1.977227  
424.000000	2.008250  
424.500000	2.029704  
425.000000	2.054636  
425.500000	2.074196  
426.000000	2.090651  
426.500000	2.094742  
427.000000	2.111992  
427.500000	2.135227  
428.000000	2.165462  
428.500000	2.192962  
429.000000	2.223613  
429.500000	2.240409  
430.000000	2.253886  
430.500000	2.273583  
431.000000	2.302015  
431.500000	2.316401  
432.000000	2.314590  
432.500000	2.323613  
433.000000	2.348659  
433.500000	2.375227  
434.000000	2.397000  
434.500000	2.409977  
435.000000	2.395803  
435.500000	2.384068  
436.000000	2.392598  
436.500000	2.420568  
437.000000	2.432280  
437.500000	2.447143  
438.000000	2.465659  
438.500000	2.476219  
439.000000	2.438204  
439.500000	2.411181  
440.000000	2.424613  
440.500000	2.464378  
441.000000	2.469962  
441.500000	2.451734  
442.000000	2.426666  
442.500000	2.426659  
443.000000	2.422386  
443.500000	2.424977  
444.000000	2.417234  
444.500000	2.426166  
445.000000	2.438401  
445.500000	2.470530  
446.000000	2.492901  
446.500000	2.488318  
447.000000	2.459833  
447.500000	2.435484  
448.000000	2.428469  
448.500000	2.416257  
449.000000	2.396916  
449.500000	2.379621  
450.000000	2.377780  
450.500000	2.394810  
451.000000	2.432416  
451.500000	2.466022  
452.000000	2.434265  
452.500000	2.376598  
453.000000	2.333386  
453.500000	2.358015  
454.000000	2.383757  
454.500000	2.382386  
455.000000	2.330409  
455.500000	2.295098  
456.000000	2.287477  
456.500000	2.309325  
457.000000	2.323068  
457.500000	2.316507  
458.000000	2.308613  
458.500000	2.292734  
459.000000	2.290901  
459.500000	2.295803  
460.000000	2.302424  
460.500000	2.274090  
461.000000	2.234583  
461.500000	2.202931  
462.000000	2.190795  
462.500000	2.201598  
463.000000	2.216878  
463.500000	2.233628  
464.000000	2.231833  
464.500000	2.219560  
465.000000	2.188848  
465.500000	2.151575  
466.000000	2.131530  
466.500000	2.137371  
467.000000	2.153022  
467.500000	2.149409  
468.000000	2.144166  
468.500000	2.140856  
469.000000	2.147424  
469.500000	2.150446  
470.000000	2.143712  
470.500000	2.125946  
471.000000	2.104166  
471.500000	2.095780  
472.000000	2.105295  
472.500000	2.124560  
473.000000	2.136174  
473.500000	2.127174  
474.000000	2.111371  
474.500000	2.094810  
475.000000	2.076757  
475.500000	2.042113  
476.000000	2.010825  
476.500000	2.004325  
477.000000	2.025242  
477.500000	2.041856  
478.000000	2.039939  
478.500000	2.047878  
479.000000	2.053719  
479.500000	2.045113  
480.000000	2.008734  
480.500000	1.973242  
481.000000	1.963636  
481.500000	1.982348  
482.000000	2.016477  
482.500000	2.037886  
483.000000	2.033257  
483.500000	2.005878  
484.000000	1.987878  
484.500000	1.974704  
485.000000	1.969916  
485.500000	1.981833  
486.000000	1.992348  
486.500000	1.973022  
487.000000	1.928719  
487.500000	1.892507  
488.000000	1.888151  
488.500000	1.902401  
489.000000	1.919924  
489.500000	1.921984  
490.000000	1.924939  
490.500000	1.917196  
491.000000	1.893462  
491.500000	1.845022  
492.000000	1.806053  
492.500000	1.803053  
493.000000	1.827522  
493.500000	1.833469  
494.000000	1.823727  
494.500000	1.801272  
495.000000	1.790189  
495.500000	1.777757  
496.000000	1.773606  
496.500000	1.772598  
497.000000	1.788931  
497.500000	1.778424  
498.000000	1.760303  
498.500000	1.746166  
499.000000	1.758409  
499.500000	1.760984  
500.000000	1.744590  
500.500000	1.722000  
501.000000	1.718515  
501.500000	1.718000  
502.000000	1.716643  
502.500000	1.694530  
503.000000	1.657333  
503.500000	1.642136  
504.000000	1.677969  
504.500000	1.722151  
505.000000	1.736477  
505.500000	1.701500  
506.000000	1.655666  
506.500000	1.629401  
507.000000	1.636166  
507.500000	1.654893  
508.000000	1.659234  
508.500000	1.645818  
509.000000	1.629931  
509.500000	1.615848  
510.000000	1.586643  
510.500000	1.563325  
511.000000	1.577363  
511.500000	1.603015  
512.000000	1.609310  
512.500000	1.582893  
513.000000	1.576363  
513.500000	1.581818  
514.000000	1.585757  
514.500000	1.556954  
515.000000	1.526909  
515.500000	1.506409  
516.000000	1.521469  
516.500000	1.561007  
517.000000	1.586659  
517.500000	1.563712  
518.000000	1.512409  
518.500000	1.475833  
519.000000	1.459068  
519.500000	1.444515  
520.000000	1.434719  
520.500000	1.446681  
521.000000	1.465787  
521.500000	1.481984  
522.000000	1.490075  
522.500000	1.487696  
523.000000	1.465348  
523.500000	1.431871  
524.000000	1.412969  
524.500000	1.409530  
525.000000	1.407333  
525.500000	1.395833  
526.000000	1.388803  
526.500000	1.398143  
527.000000	1.412901  
527.500000	1.403045  
528.000000	1.375166  
528.500000	1.362992  
529.000000	1.372492  
529.500000	1.390560  
530.000000	1.405795  
530.500000	1.413969  
531.000000	1.417674  
531.500000	1.393393  
532.000000	1.359590  
532.500000	1.324984  
533.000000	1.308810  
533.500000	1.305325  
534.000000	1.325060  
534.500000	1.318477  
535.000000	1.294946  
535.500000	1.276484  
536.000000	1.293121  
536.500000	1.306606  
537.000000	1.293696  
537.500000	1.274515  
538.000000	1.284333  
538.500000	1.300348  
539.000000	1.286901  
539.500000	1.260977  
540.000000	1.249984  
540.500000	1.255272  
541.000000	1.257356  
541.500000	1.259189  
542.000000	1.257946  
542.500000	1.247037  
543.000000	1.230856  
543.500000	1.223651  
544.000000	1.226015  
544.500000	1.221901  
545.000000	1.210181  
545.500000	1.200606  
546.000000	1.197795  
546.500000	1.199250  
547.000000	1.199386  
547.500000	1.192181  
548.000000	1.188674  
548.500000	1.198416  
549.000000	1.205765  
549.500000	1.195128  
550.000000	1.167696  
550.500000	1.155113  
551.000000	1.160053  
551.500000	1.167000  
552.000000	1.162787  
552.500000	1.163833  
553.000000	1.162250  
553.500000	1.157015  
554.000000	1.142522  
554.500000	1.129492  
555.000000	1.115181  
555.500000	1.105128  
556.000000	1.100340  
556.500000	1.110378  
557.000000	1.120151  
557.500000	1.121560  
558.000000	1.120401  
558.500000	1.128522  
559.000000	1.138045  
559.500000	1.144234  
560.000000	1.148712  
560.500000	1.141030  
561.000000	1.115053  
561.500000	1.068265  
562.000000	1.040477  
562.500000	1.044553  
563.000000	1.075492  
563.500000	1.087863  
564.000000	1.081916  
564.500000	1.067257  
565.000000	1.072939  
565.500000	1.085204  
566.000000	1.083204  
566.500000	1.067151  
567.000000	1.051045  
567.500000	1.055333  
568.000000	1.072886  
568.500000	1.092666  
569.000000	1.093931  
569.500000	1.082492  
570.000000	1.062045  
570.500000	1.050856  
571.000000	1.041484  
571.500000	1.045204  
572.000000	1.053765  
572.500000	1.068901  
573.000000	1.058840  
573.500000	1.026992  
574.000000	0.987734  
574.500000	0.972431  
575.000000	0.976999  
575.500000	0.982719  
576.000000	0.987416  
576.500000	0.994174  
577.000000	1.005757  
577.500000	1.009340  
578.000000	1.005522  
578.500000	0.999181  
579.000000	0.990143  
579.500000	0.986303  
580.000000	0.978189  
580.500000	0.969499  
581.000000	0.957810  
581.500000	0.956871  
582.000000	0.964954  
582.500000	0.972606  
583.000000	0.974454  
583.500000	0.965636  
584.000000	0.964666  
584.500000	0.968128  
585.000000	0.976628  
585.500000	0.972234  
586.000000	0.957515  
586.500000	0.938901  
587.000000	0.922553  
587.500000	0.916287  
588.000000	0.919750  
588.500000	0.934462  
589.000000	0.926598  
589.500000	0.904295  
590.000000	0.887098  
590.500000	0.906537  
591.000000	0.935537  
591.500000	0.945333  
592.000000	0.931348  
592.500000	0.915553  
593.000000	0.903189  
593.500000	0.896568  
594.000000	0.896515  
594.500000	0.903689  
595.000000	0.917030  
595.500000	0.923136  
596.000000	0.912053  
596.500000	0.889045  
597.000000	0.872780  
597.500000	0.872939  
598.000000	0.873424  
598.500000	0.867409  
599.000000	0.867272  
599.500000	0.882234  
600.000000	0.906999  

