PE FL                   SPECTRUM    ASCII       PEDS        1.60        
  -1
01#185.SP
02/03/17
05:35:52.00
02/03/17
05:38:19.00


580.000000
1









LS55
310.00
5.00
5.00
SCAN
1
20
100
100
0
100
0
1
0
1
7
ON
500 470 
1 0 0
#HDR
-1
-1
#GR
NM

0.00002384185791015625
0.0
350.000000
0.500000
461
8
2.015674
-0.001000
#DATA
350.000000	-0.001000 
350.500000	0.000454  
351.000000	0.000659  
351.500000	0.000143  
352.000000	0.000227  
352.500000	0.000931  
353.000000	0.001560  
353.500000	0.001537  
354.000000	0.001174  
354.500000	0.000840  
355.000000	0.000886  
355.500000	0.001212  
356.000000	0.002431  
356.500000	0.003878  
357.000000	0.004159  
357.500000	0.002553  
358.000000	0.000772  
358.500000	0.001363  
359.000000	0.004515  
359.500000	0.006325  
360.000000	0.006537  
360.500000	0.006992  
361.000000	0.008575  
361.500000	0.007909  
362.000000	0.004159  
362.500000	0.001537  
363.000000	0.002492  
363.500000	0.004424  
364.000000	0.004318  
364.500000	0.006409  
365.000000	0.010121  
365.500000	0.012530  
366.000000	0.011954  
366.500000	0.013606  
367.000000	0.019757  
367.500000	0.024151  
368.000000	0.024886  
368.500000	0.025704  
369.000000	0.028969  
369.500000	0.030469  
370.000000	0.029098  
370.500000	0.028265  
371.000000	0.027780  
371.500000	0.033810  
372.000000	0.039750  
372.500000	0.048363  
373.000000	0.050037  
373.500000	0.052871  
374.000000	0.055181  
374.500000	0.066098  
375.000000	0.071893  
375.500000	0.075469  
376.000000	0.076022  
376.500000	0.083045  
377.000000	0.093416  
377.500000	0.102742  
378.000000	0.114234  
378.500000	0.132537  
379.000000	0.152553  
379.500000	0.166143  
380.000000	0.175325  
380.500000	0.180431  
381.000000	0.185553  
381.500000	0.187772  
382.000000	0.188386  
382.500000	0.190507  
383.000000	0.203257  
383.500000	0.220810  
384.000000	0.240318  
384.500000	0.250083  
385.000000	0.254810  
385.500000	0.254075  
386.000000	0.266265  
386.500000	0.283924  
387.000000	0.304356  
387.500000	0.316045  
388.000000	0.331575  
388.500000	0.348969  
389.000000	0.368098  
389.500000	0.381696  
390.000000	0.392272  
390.500000	0.403196  
391.000000	0.412477  
391.500000	0.423060  
392.000000	0.434393  
392.500000	0.442946  
393.000000	0.449810  
393.500000	0.453681  
394.000000	0.464666  
394.500000	0.480499  
395.000000	0.504242  
395.500000	0.515090  
396.000000	0.524871  
396.500000	0.537098  
397.000000	0.564113  
397.500000	0.582848  
398.000000	0.583871  
398.500000	0.583257  
399.000000	0.608333  
399.500000	0.654219  
400.000000	0.685613  
400.500000	0.695053  
401.000000	0.705431  
401.500000	0.721568  
402.000000	0.734431  
402.500000	0.735143  
403.000000	0.750825  
403.500000	0.773871  
404.000000	0.802280  
404.500000	0.807287  
405.000000	0.806401  
405.500000	0.811659  
406.000000	0.831015  
406.500000	0.856893  
407.000000	0.885901  
407.500000	0.904628  
408.000000	0.912583  
408.500000	0.916280  
409.000000	0.935234  
409.500000	0.962106  
410.000000	0.991356  
410.500000	1.000863  
411.000000	1.013575  
411.500000	1.021863  
412.000000	1.029606  
412.500000	1.038348  
413.000000	1.052128  
413.500000	1.082363  
414.000000	1.117742  
414.500000	1.153840  
415.000000	1.166068  
415.500000	1.189977  
416.000000	1.205916  
416.500000	1.233651  
417.000000	1.245704  
417.500000	1.262954  
418.000000	1.279643  
418.500000	1.301742  
419.000000	1.305409  
419.500000	1.301818  
420.000000	1.303939  
420.500000	1.341507  
421.000000	1.395916  
421.500000	1.435780  
422.000000	1.435250  
422.500000	1.432083  
423.000000	1.440022  
423.500000	1.478068  
424.000000	1.521462  
424.500000	1.559068  
425.000000	1.570893  
425.500000	1.575401  
426.000000	1.594780  
426.500000	1.627007  
427.000000	1.643363  
427.500000	1.650280  
428.000000	1.664136  
428.500000	1.688848  
429.000000	1.691712  
429.500000	1.696333  
430.000000	1.719446  
430.500000	1.755962  
431.000000	1.777272  
431.500000	1.805212  
432.000000	1.833977  
432.500000	1.833287  
433.000000	1.796901  
433.500000	1.764409  
434.000000	1.784469  
434.500000	1.825318  
435.000000	1.863553  
435.500000	1.879780  
436.000000	1.888030  
436.500000	1.885946  
437.000000	1.897530  
437.500000	1.906613  
438.000000	1.904856  
438.500000	1.887515  
439.000000	1.885462  
439.500000	1.918734  
440.000000	1.949515  
440.500000	1.959825  
441.000000	1.953825  
441.500000	1.974818  
442.000000	1.990613  
442.500000	1.993242  
443.000000	1.970727  
443.500000	1.971674  
444.000000	1.978333  
444.500000	1.980977  
445.000000	1.961553  
445.500000	1.945856  
446.000000	1.939696  
446.500000	1.940840  
447.000000	1.940250  
447.500000	1.953469  
448.000000	1.973696  
448.500000	1.982030  
449.000000	1.969106  
449.500000	1.951598  
450.000000	1.941386  
450.500000	1.941742  
451.000000	1.945318  
451.500000	1.955636  
452.000000	1.950734  
452.500000	1.938060  
453.000000	1.929757  
453.500000	1.950780  
454.000000	1.988606  
454.500000	2.015674  
455.000000	2.012348  
455.500000	1.983689  
456.000000	1.983446  
456.500000	1.993371  
457.000000	1.993666  
457.500000	1.951856  
458.000000	1.910909  
458.500000	1.894227  
459.000000	1.912113  
459.500000	1.940931  
460.000000	1.956719  
460.500000	1.957000  
461.000000	1.940106  
461.500000	1.926136  
462.000000	1.906939  
462.500000	1.917083  
463.000000	1.931000  
463.500000	1.940340  
464.000000	1.934484  
464.500000	1.942681  
465.000000	1.948515  
465.500000	1.927621  
466.000000	1.878484  
466.500000	1.847772  
467.000000	1.863212  
467.500000	1.892348  
468.000000	1.917159  
468.500000	1.937916  
469.000000	1.957977  
469.500000	1.954166  
470.000000	1.927280  
470.500000	1.902287  
471.000000	1.905310  
471.500000	1.906871  
472.000000	1.890431  
472.500000	1.871757  
473.000000	1.882053  
473.500000	1.904643  
474.000000	1.906757  
474.500000	1.891500  
475.000000	1.883015  
475.500000	1.891681  
476.000000	1.886613  
476.500000	1.862795  
477.000000	1.852962  
477.500000	1.874780  
478.000000	1.877484  
478.500000	1.851113  
479.000000	1.837053  
479.500000	1.861780  
480.000000	1.888689  
480.500000	1.894477  
481.000000	1.885098  
481.500000	1.885575  
482.000000	1.874916  
482.500000	1.849863  
483.000000	1.833022  
483.500000	1.840371  
484.000000	1.854606  
484.500000	1.877621  
485.000000	1.876772  
485.500000	1.861053  
486.000000	1.828424  
486.500000	1.812530  
487.000000	1.808265  
487.500000	1.815916  
488.000000	1.810643  
488.500000	1.803378  
489.000000	1.791878  
489.500000	1.790439  
490.000000	1.810454  
490.500000	1.835250  
491.000000	1.840696  
491.500000	1.812704  
492.000000	1.775886  
492.500000	1.761946  
493.000000	1.761386  
493.500000	1.760356  
494.000000	1.747303  
494.500000	1.725795  
495.000000	1.707575  
495.500000	1.723553  
496.000000	1.765727  
496.500000	1.792378  
497.000000	1.777477  
497.500000	1.730181  
498.000000	1.696575  
498.500000	1.683772  
499.000000	1.711325  
499.500000	1.741530  
500.000000	1.751250  
500.500000	1.735287  
501.000000	1.717272  
501.500000	1.706522  
502.000000	1.704378  
502.500000	1.702500  
503.000000	1.702196  
503.500000	1.687893  
504.000000	1.678242  
504.500000	1.689575  
505.000000	1.709143  
505.500000	1.708022  
506.000000	1.699689  
506.500000	1.704689  
507.000000	1.716401  
507.500000	1.729045  
508.000000	1.725734  
508.500000	1.712962  
509.000000	1.679189  
509.500000	1.655257  
510.000000	1.630250  
510.500000	1.612643  
511.000000	1.586424  
511.500000	1.595015  
512.000000	1.603037  
512.500000	1.605696  
513.000000	1.576522  
513.500000	1.589984  
514.000000	1.623250  
514.500000	1.650098  
515.000000	1.628151  
515.500000	1.595840  
516.000000	1.579356  
516.500000	1.583704  
517.000000	1.598416  
517.500000	1.602401  
518.000000	1.589136  
518.500000	1.563606  
519.000000	1.554734  
519.500000	1.560560  
520.000000	1.552439  
520.500000	1.542795  
521.000000	1.558181  
521.500000	1.590492  
522.000000	1.587416  
522.500000	1.549833  
523.000000	1.500356  
523.500000	1.486462  
524.000000	1.497924  
524.500000	1.523924  
525.000000	1.537015  
525.500000	1.538333  
526.000000	1.517416  
526.500000	1.497977  
527.000000	1.472681  
527.500000	1.474712  
528.000000	1.489969  
528.500000	1.499636  
529.000000	1.476810  
529.500000	1.456037  
530.000000	1.448840  
530.500000	1.466613  
531.000000	1.463977  
531.500000	1.459954  
532.000000	1.449348  
532.500000	1.458446  
533.000000	1.450613  
533.500000	1.455333  
534.000000	1.455196  
534.500000	1.472636  
535.000000	1.472681  
535.500000	1.465719  
536.000000	1.448537  
536.500000	1.448409  
537.000000	1.445303  
537.500000	1.428734  
538.000000	1.401015  
538.500000	1.400848  
539.000000	1.411840  
539.500000	1.429704  
540.000000	1.422886  
540.500000	1.433030  
541.000000	1.430310  
541.500000	1.423356  
542.000000	1.389030  
542.500000	1.380181  
543.000000	1.369681  
543.500000	1.363590  
544.000000	1.352424  
544.500000	1.364583  
545.000000	1.385333  
545.500000	1.388196  
546.000000	1.363318  
546.500000	1.345295  
547.000000	1.341962  
547.500000	1.354704  
548.000000	1.357765  
548.500000	1.361689  
549.000000	1.352893  
549.500000	1.351212  
550.000000	1.332257  
550.500000	1.319810  
551.000000	1.306977  
551.500000	1.303939  
552.000000	1.305643  
552.500000	1.310651  
553.000000	1.314446  
553.500000	1.311515  
554.000000	1.304022  
554.500000	1.297007  
555.000000	1.297840  
555.500000	1.294696  
556.000000	1.285818  
556.500000	1.272151  
557.000000	1.256583  
557.500000	1.244075  
558.000000	1.226628  
558.500000	1.222803  
559.000000	1.243560  
559.500000	1.262651  
560.000000	1.258871  
560.500000	1.246659  
561.000000	1.251977  
561.500000	1.267007  
562.000000	1.263810  
562.500000	1.245515  
563.000000	1.235750  
563.500000	1.236378  
564.000000	1.242462  
564.500000	1.252901  
565.000000	1.261477  
565.500000	1.263340  
566.000000	1.244356  
566.500000	1.209356  
567.000000	1.185704  
567.500000	1.197454  
568.000000	1.227227  
568.500000	1.234757  
569.000000	1.219143  
569.500000	1.218318  
570.000000	1.223909  
570.500000	1.211500  
571.000000	1.180878  
571.500000	1.167090  
572.000000	1.179818  
572.500000	1.193757  
573.000000	1.190348  
573.500000	1.181113  
574.000000	1.170962  
574.500000	1.156780  
575.000000	1.137303  
575.500000	1.121780  
576.000000	1.130348  
576.500000	1.171242  
577.000000	1.207280  
577.500000	1.211166  
578.000000	1.187613  
578.500000	1.155333  
579.000000	1.132174  
579.500000	1.142477  
580.000000	1.184000  

