PE FL                   SPECTRUM    ASCII       PEDS        1.60        
  -1
01#182.SP
02/03/17
05:27:22.00
02/03/17
05:29:03.00


410.000000
1









LS55
450.00
5.00
5.00
SCAN
1
20
100
100
0
100
0
0
0
1
7
ON
512 310 
1 0 0
#HDR
-1
-1
#GR
NM

0.00002384185791015625
0.0
250.000000
0.500000
321
8
3.005128
0.504363
#DATA
250.000000	0.625000 
250.500000	0.589734 
251.000000	0.573772 
251.500000	0.556416 
252.000000	0.531151 
252.500000	0.507409 
253.000000	0.504363 
253.500000	0.510234 
254.000000	0.532174 
254.500000	0.557568 
255.000000	0.564128 
255.500000	0.551113 
256.000000	0.546818 
256.500000	0.585257 
257.000000	0.616136 
257.500000	0.628484 
258.000000	0.620446 
258.500000	0.630810 
259.000000	0.635840 
259.500000	0.630469 
260.000000	0.619462 
260.500000	0.630189 
261.000000	0.659348 
261.500000	0.672234 
262.000000	0.670962 
262.500000	0.661999 
263.000000	0.655507 
263.500000	0.662242 
264.000000	0.689075 
264.500000	0.731159 
265.000000	0.756515 
265.500000	0.760181 
266.000000	0.754507 
266.500000	0.759037 
267.000000	0.761121 
267.500000	0.763007 
268.000000	0.776386 
268.500000	0.788340 
269.000000	0.791537 
269.500000	0.782227 
270.000000	0.781106 
270.500000	0.789553 
271.000000	0.810628 
271.500000	0.829386 
272.000000	0.834000 
272.500000	0.819916 
273.000000	0.811954 
273.500000	0.804666 
274.000000	0.792856 
274.500000	0.779712 
275.000000	0.780840 
275.500000	0.787689 
276.000000	0.794484 
276.500000	0.794431 
277.000000	0.789098 
277.500000	0.783651 
278.000000	0.794863 
278.500000	0.817348 
279.000000	0.818924 
279.500000	0.787863 
280.000000	0.772325 
280.500000	0.785272 
281.000000	0.813696 
281.500000	0.820727 
282.000000	0.810174 
282.500000	0.776924 
283.000000	0.755409 
283.500000	0.751886 
284.000000	0.782007 
284.500000	0.801181 
285.000000	0.805696 
285.500000	0.783946 
286.000000	0.759363 
286.500000	0.727280 
287.000000	0.706212 
287.500000	0.696181 
288.000000	0.694106 
288.500000	0.700060 
289.000000	0.701553 
289.500000	0.698984 
290.000000	0.680939 
290.500000	0.670742 
291.000000	0.662893 
291.500000	0.660409 
292.000000	0.656969 
292.500000	0.655689 
293.000000	0.653477 
293.500000	0.657909 
294.000000	0.677840 
294.500000	0.703704 
295.000000	0.720363 
295.500000	0.736106 
296.000000	0.759477 
296.500000	0.780378 
297.000000	0.790234 
297.500000	0.815704 
298.000000	0.864878 
298.500000	0.932780 
299.000000	1.003977 
299.500000	1.085553 
300.000000	1.171378 
300.500000	1.250787 
301.000000	1.334363 
301.500000	1.423469 
302.000000	1.517212 
302.500000	1.593810 
303.000000	1.663204 
303.500000	1.735333 
304.000000	1.817053 
304.500000	1.878628 
305.000000	1.909984 
305.500000	1.925037 
306.000000	1.956522 
306.500000	2.013893 
307.000000	2.063583 
307.500000	2.086386 
308.000000	2.091606 
308.500000	2.106007 
309.000000	2.132469 
309.500000	2.157939 
310.000000	2.141848 
310.500000	2.085431 
311.000000	2.013462 
311.500000	1.980545 
312.000000	1.983757 
312.500000	1.990121 
313.000000	1.975424 
313.500000	1.958015 
314.000000	1.933560 
314.500000	1.907696 
315.000000	1.884719 
315.500000	1.858439 
316.000000	1.823590 
316.500000	1.802098 
317.000000	1.797196 
317.500000	1.791045 
318.000000	1.747810 
318.500000	1.708151 
319.000000	1.707659 
319.500000	1.740204 
320.000000	1.751598 
320.500000	1.740060 
321.000000	1.715060 
321.500000	1.694068 
322.000000	1.692727 
322.500000	1.702674 
323.000000	1.719424 
323.500000	1.704348 
324.000000	1.673007 
324.500000	1.646348 
325.000000	1.655030 
325.500000	1.667893 
326.000000	1.668712 
326.500000	1.656121 
327.000000	1.652401 
327.500000	1.676287 
328.000000	1.697992 
328.500000	1.707295 
329.000000	1.697606 
329.500000	1.694977 
330.000000	1.700825 
330.500000	1.718106 
331.000000	1.744772 
331.500000	1.770916 
332.000000	1.793098 
332.500000	1.811303 
333.000000	1.849045 
333.500000	1.872272 
334.000000	1.885772 
334.500000	1.887984 
335.000000	1.913765 
335.500000	1.925022 
336.000000	1.937159 
336.500000	1.950856 
337.000000	2.000977 
337.500000	2.025863 
338.000000	2.029250 
338.500000	2.031030 
339.000000	2.068681 
339.500000	2.118621 
340.000000	2.142659 
340.500000	2.149098 
341.000000	2.150833 
341.500000	2.176810 
342.000000	2.199969 
342.500000	2.229075 
343.000000	2.249265 
343.500000	2.272250 
344.000000	2.281310 
344.500000	2.275606 
345.000000	2.283045 
345.500000	2.313340 
346.000000	2.365560 
346.500000	2.399666 
347.000000	2.424492 
347.500000	2.426954 
348.000000	2.437659 
348.500000	2.466204 
349.000000	2.526598 
349.500000	2.569045 
350.000000	2.571674 
350.500000	2.561696 
351.000000	2.578810 
351.500000	2.602636 
352.000000	2.617780 
352.500000	2.639030 
353.000000	2.686257 
353.500000	2.725674 
354.000000	2.735265 
354.500000	2.735992 
355.000000	2.750689 
355.500000	2.781303 
356.000000	2.800515 
356.500000	2.829500 
357.000000	2.875636 
357.500000	2.930310 
358.000000	2.934628 
358.500000	2.892098 
359.000000	2.853356 
359.500000	2.862696 
360.000000	2.906060 
360.500000	2.923212 
361.000000	2.914386 
361.500000	2.896863 
362.000000	2.921189 
362.500000	2.959992 
363.000000	3.003166 
363.500000	3.005128 
364.000000	3.004871 
364.500000	2.985704 
365.000000	2.981189 
365.500000	2.969704 
366.000000	2.967583 
366.500000	2.958325 
367.000000	2.945409 
367.500000	2.944954 
368.000000	2.947598 
368.500000	2.955840 
369.000000	2.939803 
369.500000	2.940136 
370.000000	2.946484 
370.500000	2.967378 
371.000000	2.954575 
371.500000	2.913280 
372.000000	2.869909 
372.500000	2.849893 
373.000000	2.822560 
373.500000	2.781621 
374.000000	2.753553 
374.500000	2.765363 
375.000000	2.793696 
375.500000	2.799113 
376.000000	2.757303 
376.500000	2.706022 
377.000000	2.670674 
377.500000	2.660757 
378.000000	2.650015 
378.500000	2.605446 
379.000000	2.542424 
379.500000	2.495159 
380.000000	2.465583 
380.500000	2.444416 
381.000000	2.432015 
381.500000	2.426340 
382.000000	2.407151 
382.500000	2.364477 
383.000000	2.318704 
383.500000	2.293204 
384.000000	2.280393 
384.500000	2.255181 
385.000000	2.213962 
385.500000	2.160583 
386.000000	2.116689 
386.500000	2.088871 
387.000000	2.075848 
387.500000	2.050666 
388.000000	2.013878 
388.500000	1.989901 
389.000000	1.982560 
389.500000	1.974636 
390.000000	1.945522 
390.500000	1.905719 
391.000000	1.859992 
391.500000	1.819651 
392.000000	1.783257 
392.500000	1.760553 
393.000000	1.740613 
393.500000	1.725075 
394.000000	1.708916 
394.500000	1.699174 
395.000000	1.696393 
395.500000	1.692901 
396.000000	1.666583 
396.500000	1.612856 
397.000000	1.559393 
397.500000	1.528484 
398.000000	1.511545 
398.500000	1.480500 
399.000000	1.451212 
399.500000	1.426621 
400.000000	1.404090 
400.500000	1.368446 
401.000000	1.317000 
401.500000	1.273545 
402.000000	1.248265 
402.500000	1.250219 
403.000000	1.245340 
403.500000	1.227712 
404.000000	1.185795 
404.500000	1.154424 
405.000000	1.125674 
405.500000	1.101348 
406.000000	1.076636 
406.500000	1.053939 
407.000000	1.044424 
407.500000	1.050462 
408.000000	1.057659 
408.500000	1.053787 
409.000000	1.032409 
409.500000	0.983143 
410.000000	0.916999 

