PE FL                   SPECTRUM    ASCII       PEDS        1.60        
  -1
01#186.SP
02/03/17
05:38:59.00
02/03/17
05:40:49.00


390.000000
1









LS55
420.00
5.00
5.00
SCAN
1
20
100
100
0
100
0
0
0
1
7
ON
580 310 
1 0 0
#HDR
-1
-1
#GR
NM

0.00002384185791015625
0.0
220.000000
0.500000
341
8
1.460151
0.107143
#DATA
220.000000	0.291999 
220.500000	0.159136 
221.000000	0.107143 
221.500000	0.123045 
222.000000	0.165484 
222.500000	0.192371 
223.000000	0.245863 
223.500000	0.321378 
224.000000	0.386818 
224.500000	0.381409 
225.000000	0.343643 
225.500000	0.314606 
226.000000	0.325568 
226.500000	0.356977 
227.000000	0.374575 
227.500000	0.366113 
228.000000	0.353022 
228.500000	0.356878 
229.000000	0.372310 
229.500000	0.376924 
230.000000	0.362227 
230.500000	0.336340 
231.000000	0.322931 
231.500000	0.315909 
232.000000	0.314318 
232.500000	0.318196 
233.000000	0.338310 
233.500000	0.353068 
234.000000	0.345772 
234.500000	0.333742 
235.000000	0.329477 
235.500000	0.329787 
236.000000	0.309106 
236.500000	0.294106 
237.000000	0.299719 
237.500000	0.324174 
238.000000	0.327250 
238.500000	0.306575 
239.000000	0.285598 
239.500000	0.277287 
240.000000	0.279303 
240.500000	0.291628 
241.000000	0.312265 
241.500000	0.317462 
242.000000	0.300393 
242.500000	0.284212 
243.000000	0.272787 
243.500000	0.268606 
244.000000	0.267840 
244.500000	0.280825 
245.000000	0.275371 
245.500000	0.256075 
246.000000	0.240803 
246.500000	0.259765 
247.000000	0.279469 
247.500000	0.286431 
248.000000	0.275871 
248.500000	0.274356 
249.000000	0.274969 
249.500000	0.278068 
250.000000	0.274037 
250.500000	0.274946 
251.000000	0.287765 
251.500000	0.306901 
252.000000	0.307780 
252.500000	0.290015 
253.000000	0.263916 
253.500000	0.262962 
254.000000	0.287818 
254.500000	0.330704 
255.000000	0.340696 
255.500000	0.334568 
256.000000	0.317583 
256.500000	0.318992 
257.000000	0.320318 
257.500000	0.323484 
258.000000	0.329242 
258.500000	0.342787 
259.000000	0.361818 
259.500000	0.372939 
260.000000	0.376492 
260.500000	0.362151 
261.000000	0.352083 
261.500000	0.350893 
262.000000	0.366954 
262.500000	0.389507 
263.000000	0.402704 
263.500000	0.402060 
264.000000	0.402181 
264.500000	0.422128 
265.000000	0.436151 
265.500000	0.433090 
266.000000	0.417143 
266.500000	0.435045 
267.000000	0.463704 
267.500000	0.480401 
268.000000	0.464734 
268.500000	0.444537 
269.000000	0.429984 
269.500000	0.426689 
270.000000	0.435931 
270.500000	0.452159 
271.000000	0.460621 
271.500000	0.448825 
272.000000	0.457537 
272.500000	0.486537 
273.000000	0.524772 
273.500000	0.526924 
274.000000	0.506598 
274.500000	0.491431 
275.000000	0.499106 
275.500000	0.510863 
276.000000	0.515113 
276.500000	0.511068 
277.000000	0.510250 
277.500000	0.523583 
278.000000	0.527060 
278.500000	0.527537 
279.000000	0.527287 
279.500000	0.534113 
280.000000	0.532477 
280.500000	0.531477 
281.000000	0.521318 
281.500000	0.517530 
282.000000	0.510651 
282.500000	0.515128 
283.000000	0.517409 
283.500000	0.514621 
284.000000	0.506696 
284.500000	0.506992 
285.000000	0.494212 
285.500000	0.467901 
286.000000	0.443037 
286.500000	0.436007 
287.000000	0.435909 
287.500000	0.431045 
288.000000	0.419545 
288.500000	0.413136 
289.000000	0.421424 
289.500000	0.433409 
290.000000	0.439568 
290.500000	0.421189 
291.000000	0.395477 
291.500000	0.378234 
292.000000	0.384037 
292.500000	0.392924 
293.000000	0.396969 
293.500000	0.397545 
294.000000	0.405515 
294.500000	0.425166 
295.000000	0.441151 
295.500000	0.449863 
296.000000	0.456333 
296.500000	0.474689 
297.000000	0.498575 
297.500000	0.532840 
298.000000	0.566446 
298.500000	0.616621 
299.000000	0.677537 
299.500000	0.749045 
300.000000	0.809984 
300.500000	0.875106 
301.000000	0.938719 
301.500000	1.013909 
302.000000	1.079075 
302.500000	1.138295 
303.000000	1.184045 
303.500000	1.226325 
304.000000	1.257545 
304.500000	1.295772 
305.000000	1.333166 
305.500000	1.363780 
306.000000	1.386681 
306.500000	1.401553 
307.000000	1.412401 
307.500000	1.409265 
308.000000	1.410318 
308.500000	1.405371 
309.000000	1.402151 
309.500000	1.376704 
310.000000	1.357037 
310.500000	1.349757 
311.000000	1.343348 
311.500000	1.310696 
312.000000	1.267454 
312.500000	1.237628 
313.000000	1.223409 
313.500000	1.213931 
314.000000	1.198871 
314.500000	1.183348 
315.000000	1.156000 
315.500000	1.127174 
316.000000	1.104393 
316.500000	1.098719 
317.000000	1.079606 
317.500000	1.057234 
318.000000	1.026916 
318.500000	1.018090 
319.000000	1.005431 
319.500000	0.989689 
320.000000	0.954984 
320.500000	0.930765 
321.000000	0.915030 
321.500000	0.912356 
322.000000	0.907196 
322.500000	0.910333 
323.000000	0.912537 
323.500000	0.919772 
324.000000	0.924893 
324.500000	0.928590 
325.000000	0.914462 
325.500000	0.898325 
326.000000	0.896219 
326.500000	0.908606 
327.000000	0.913249 
327.500000	0.895636 
328.000000	0.882287 
328.500000	0.887439 
329.000000	0.904068 
329.500000	0.910128 
330.000000	0.914916 
330.500000	0.929621 
331.000000	0.948613 
331.500000	0.958106 
332.000000	0.954090 
332.500000	0.955272 
333.000000	0.960303 
333.500000	0.959575 
334.000000	0.951696 
334.500000	0.963916 
335.000000	0.996954 
335.500000	1.031734 
336.000000	1.046484 
336.500000	1.052590 
337.000000	1.061462 
337.500000	1.083878 
338.000000	1.110878 
338.500000	1.121946 
339.000000	1.101545 
339.500000	1.062166 
340.000000	1.051568 
340.500000	1.074878 
341.000000	1.116628 
341.500000	1.126462 
342.000000	1.119522 
342.500000	1.116257 
343.000000	1.136424 
343.500000	1.161621 
344.000000	1.175613 
344.500000	1.166568 
345.000000	1.150265 
345.500000	1.153553 
346.000000	1.183045 
346.500000	1.216575 
347.000000	1.235174 
347.500000	1.237787 
348.000000	1.244053 
348.500000	1.236833 
349.000000	1.223234 
349.500000	1.222583 
350.000000	1.242356 
350.500000	1.264772 
351.000000	1.272416 
351.500000	1.290181 
352.000000	1.310916 
352.500000	1.346166 
353.000000	1.352522 
353.500000	1.352856 
354.000000	1.335219 
354.500000	1.335856 
355.000000	1.345295 
355.500000	1.369946 
356.000000	1.374765 
356.500000	1.365454 
357.000000	1.356113 
357.500000	1.373666 
358.000000	1.400575 
358.500000	1.403477 
359.000000	1.384272 
359.500000	1.375515 
360.000000	1.390719 
360.500000	1.405636 
361.000000	1.387962 
361.500000	1.369568 
362.000000	1.381545 
362.500000	1.428446 
363.000000	1.460151 
363.500000	1.458742 
364.000000	1.419151 
364.500000	1.396325 
365.000000	1.392856 
365.500000	1.398893 
366.000000	1.380750 
366.500000	1.350287 
367.000000	1.340674 
367.500000	1.356363 
368.000000	1.365871 
368.500000	1.350719 
369.000000	1.331962 
369.500000	1.323477 
370.000000	1.325946 
370.500000	1.335886 
371.000000	1.347371 
371.500000	1.350303 
372.000000	1.321121 
372.500000	1.274871 
373.000000	1.238636 
373.500000	1.227242 
374.000000	1.232409 
374.500000	1.241704 
375.000000	1.247280 
375.500000	1.229303 
376.000000	1.198128 
376.500000	1.169128 
377.000000	1.161522 
377.500000	1.149545 
378.000000	1.128333 
378.500000	1.104113 
379.000000	1.105492 
379.500000	1.109522 
380.000000	1.101939 
380.500000	1.075954 
381.000000	1.065174 
381.500000	1.060303 
382.000000	1.055378 
382.500000	1.032939 
383.000000	1.017871 
383.500000	1.020265 
384.000000	1.018856 
384.500000	1.005560 
385.000000	0.984333 
385.500000	0.969825 
386.000000	0.956015 
386.500000	0.950765 
387.000000	0.947136 
387.500000	0.947454 
388.000000	0.938287 
388.500000	0.930363 
389.000000	0.930484 
389.500000	0.931037 
390.000000	0.926999 

