PE FL                   SPECTRUM    ASCII       PEDS        1.60        
  -1
01#183.SP
02/03/17
05:29:43.00
02/03/17
05:32:28.00


650.000000
1









LS55
365.00
5.00
5.00
SCAN
1
20
100
100
0
100
0
1
0
1
7
ON
450 410 
1 0 0
#HDR
-1
-1
#GR
NM

0.00002384185791015625
0.0
390.000000
0.500000
521
8
3.441537
0.195000
#DATA
390.000000	0.195000 
390.500000	0.251007 
391.000000	0.285992 
391.500000	0.300128 
392.000000	0.315083 
392.500000	0.331348 
393.000000	0.341787 
393.500000	0.342181 
394.000000	0.346068 
394.500000	0.359909 
395.000000	0.382015 
395.500000	0.400992 
396.000000	0.410606 
396.500000	0.416818 
397.000000	0.420946 
397.500000	0.426734 
398.000000	0.438386 
398.500000	0.453674 
399.000000	0.464712 
399.500000	0.471568 
400.000000	0.481007 
400.500000	0.500318 
401.000000	0.521227 
401.500000	0.538500 
402.000000	0.551545 
402.500000	0.567537 
403.000000	0.583295 
403.500000	0.605272 
404.000000	0.629446 
404.500000	0.645704 
405.000000	0.663371 
405.500000	0.687060 
406.000000	0.712681 
406.500000	0.734106 
407.000000	0.748310 
407.500000	0.766734 
408.000000	0.788833 
408.500000	0.814212 
409.000000	0.837386 
409.500000	0.858431 
410.000000	0.876416 
410.500000	0.892621 
411.000000	0.913810 
411.500000	0.937174 
412.000000	0.977992 
412.500000	1.013340 
413.000000	1.031174 
413.500000	1.035484 
414.000000	1.056356 
414.500000	1.094939 
415.000000	1.128537 
415.500000	1.139984 
416.000000	1.158772 
416.500000	1.201492 
417.000000	1.253204 
417.500000	1.286431 
418.000000	1.293431 
418.500000	1.301878 
419.000000	1.327196 
419.500000	1.378325 
420.000000	1.435969 
420.500000	1.489121 
421.000000	1.528439 
421.500000	1.563598 
422.000000	1.592977 
422.500000	1.614545 
423.000000	1.636128 
423.500000	1.663083 
424.000000	1.695272 
424.500000	1.731075 
425.000000	1.758666 
425.500000	1.774166 
426.000000	1.781333 
426.500000	1.802363 
427.000000	1.845181 
427.500000	1.901757 
428.000000	1.953325 
428.500000	1.964924 
429.000000	1.960515 
429.500000	1.972984 
430.000000	2.035568 
430.500000	2.083522 
431.000000	2.102174 
431.500000	2.117886 
432.000000	2.169598 
432.500000	2.222462 
433.000000	2.254969 
433.500000	2.278954 
434.000000	2.313583 
434.500000	2.335628 
435.000000	2.350333 
435.500000	2.383318 
436.000000	2.424977 
436.500000	2.450439 
437.000000	2.473439 
437.500000	2.491318 
438.000000	2.497378 
438.500000	2.495409 
439.000000	2.527257 
439.500000	2.603977 
440.000000	2.667962 
440.500000	2.667750 
441.000000	2.639371 
441.500000	2.637166 
442.000000	2.676484 
442.500000	2.708734 
443.000000	2.704795 
443.500000	2.701507 
444.000000	2.742628 
444.500000	2.804886 
445.000000	2.830590 
445.500000	2.827795 
446.000000	2.819659 
446.500000	2.824984 
447.000000	2.840689 
447.500000	2.867772 
448.000000	2.887250 
448.500000	2.892977 
449.000000	2.897621 
449.500000	2.905272 
450.000000	2.907500 
450.500000	2.890909 
451.000000	2.898825 
451.500000	2.947939 
452.000000	2.993053 
452.500000	2.999212 
453.000000	2.979204 
453.500000	2.978787 
454.000000	2.997000 
454.500000	3.016825 
455.000000	3.036560 
455.500000	3.064598 
456.000000	3.081856 
456.500000	3.066303 
457.000000	3.057037 
457.500000	3.058393 
458.000000	3.085196 
458.500000	3.095712 
459.000000	3.102696 
459.500000	3.101000 
460.000000	3.115113 
460.500000	3.123303 
461.000000	3.122015 
461.500000	3.107795 
462.000000	3.106795 
462.500000	3.125818 
463.000000	3.143022 
463.500000	3.146787 
464.000000	3.150863 
464.500000	3.155159 
465.000000	3.152659 
465.500000	3.138151 
466.000000	3.130310 
466.500000	3.127757 
467.000000	3.139757 
467.500000	3.155189 
468.000000	3.199325 
468.500000	3.253946 
469.000000	3.298469 
469.500000	3.292931 
470.000000	3.246234 
470.500000	3.218803 
471.000000	3.221469 
471.500000	3.251522 
472.000000	3.275469 
472.500000	3.302128 
473.000000	3.316181 
473.500000	3.311575 
474.000000	3.308863 
474.500000	3.328310 
475.000000	3.348068 
475.500000	3.334166 
476.000000	3.302477 
476.500000	3.300045 
477.000000	3.324795 
477.500000	3.334878 
478.000000	3.301053 
478.500000	3.279401 
479.000000	3.296393 
479.500000	3.326386 
480.000000	3.342242 
480.500000	3.337500 
481.000000	3.341242 
481.500000	3.342772 
482.000000	3.363893 
482.500000	3.386075 
483.000000	3.393765 
483.500000	3.376583 
484.000000	3.365545 
484.500000	3.376810 
485.000000	3.410181 
485.500000	3.441537 
486.000000	3.440924 
486.500000	3.420659 
487.000000	3.405310 
487.500000	3.405060 
488.000000	3.395681 
488.500000	3.376121 
489.000000	3.369416 
489.500000	3.366666 
490.000000	3.349272 
490.500000	3.319295 
491.000000	3.315325 
491.500000	3.339257 
492.000000	3.376825 
492.500000	3.377757 
493.000000	3.354106 
493.500000	3.321969 
494.000000	3.310659 
494.500000	3.303303 
495.000000	3.298939 
495.500000	3.286401 
496.000000	3.264227 
496.500000	3.217272 
497.000000	3.173272 
497.500000	3.157287 
498.000000	3.172977 
498.500000	3.199545 
499.000000	3.204280 
499.500000	3.183734 
500.000000	3.158227 
500.500000	3.161159 
501.000000	3.168689 
501.500000	3.169242 
502.000000	3.160681 
502.500000	3.156401 
503.000000	3.149613 
503.500000	3.139621 
504.000000	3.129954 
504.500000	3.117818 
505.000000	3.097128 
505.500000	3.060507 
506.000000	3.030068 
506.500000	3.023681 
507.000000	3.049545 
507.500000	3.089628 
508.000000	3.101007 
508.500000	3.062492 
509.000000	3.029287 
509.500000	3.017295 
510.000000	3.016643 
510.500000	2.998803 
511.000000	2.998666 
511.500000	3.022666 
512.000000	3.046151 
512.500000	3.027651 
513.000000	2.976143 
513.500000	2.938924 
514.000000	2.915734 
514.500000	2.907606 
515.000000	2.905325 
515.500000	2.926189 
516.000000	2.943840 
516.500000	2.934469 
517.000000	2.889878 
517.500000	2.866015 
518.000000	2.872060 
518.500000	2.888356 
519.000000	2.883727 
519.500000	2.872189 
520.000000	2.855856 
520.500000	2.836477 
521.000000	2.802674 
521.500000	2.774992 
522.000000	2.764325 
522.500000	2.778424 
523.000000	2.789803 
523.500000	2.790537 
524.000000	2.758750 
524.500000	2.718893 
525.000000	2.691810 
525.500000	2.703727 
526.000000	2.734181 
526.500000	2.764659 
527.000000	2.769795 
527.500000	2.753583 
528.000000	2.717121 
528.500000	2.702424 
529.000000	2.714840 
529.500000	2.738522 
530.000000	2.707537 
530.500000	2.653765 
531.000000	2.610310 
531.500000	2.615590 
532.000000	2.634098 
532.500000	2.643325 
533.000000	2.626469 
533.500000	2.612719 
534.000000	2.617598 
534.500000	2.629696 
535.000000	2.625454 
535.500000	2.608159 
536.000000	2.590075 
536.500000	2.581431 
537.000000	2.555060 
537.500000	2.527750 
538.000000	2.510446 
538.500000	2.510227 
539.000000	2.501265 
539.500000	2.500340 
540.000000	2.509515 
540.500000	2.526219 
541.000000	2.531772 
541.500000	2.516454 
542.000000	2.503484 
542.500000	2.501795 
543.000000	2.507878 
543.500000	2.501962 
544.000000	2.482333 
544.500000	2.456234 
545.000000	2.443159 
545.500000	2.442439 
546.000000	2.435666 
546.500000	2.427606 
547.000000	2.407022 
547.500000	2.396825 
548.000000	2.393393 
548.500000	2.386113 
549.000000	2.357893 
549.500000	2.351659 
550.000000	2.374621 
550.500000	2.412462 
551.000000	2.408053 
551.500000	2.373166 
552.000000	2.330590 
552.500000	2.328166 
553.000000	2.350469 
553.500000	2.389787 
554.000000	2.407909 
554.500000	2.400189 
555.000000	2.367318 
555.500000	2.320318 
556.000000	2.291924 
556.500000	2.292946 
557.000000	2.318886 
557.500000	2.319727 
558.000000	2.292803 
558.500000	2.259984 
559.000000	2.245318 
559.500000	2.239977 
560.000000	2.228037 
560.500000	2.209386 
561.000000	2.210780 
561.500000	2.246181 
562.000000	2.276348 
562.500000	2.263553 
563.000000	2.212810 
563.500000	2.158893 
564.000000	2.129257 
564.500000	2.135856 
565.000000	2.152053 
565.500000	2.172522 
566.000000	2.165780 
566.500000	2.162643 
567.000000	2.153128 
567.500000	2.159015 
568.000000	2.143454 
568.500000	2.128181 
569.000000	2.100901 
569.500000	2.097143 
570.000000	2.100446 
570.500000	2.097803 
571.000000	2.072984 
571.500000	2.046575 
572.000000	2.036333 
572.500000	2.038681 
573.000000	2.053242 
573.500000	2.065689 
574.000000	2.071136 
574.500000	2.068446 
575.000000	2.059007 
575.500000	2.046219 
576.000000	2.038901 
576.500000	2.039333 
577.000000	2.038795 
577.500000	2.012962 
578.000000	1.984810 
578.500000	1.958621 
579.000000	1.953257 
579.500000	1.952757 
580.000000	1.969015 
580.500000	1.965393 
581.000000	1.944537 
581.500000	1.921371 
582.000000	1.923484 
582.500000	1.938946 
583.000000	1.930181 
583.500000	1.903265 
584.000000	1.865030 
584.500000	1.839916 
585.000000	1.841295 
585.500000	1.863416 
586.000000	1.884500 
586.500000	1.889409 
587.000000	1.880803 
587.500000	1.858795 
588.000000	1.834636 
588.500000	1.814196 
589.000000	1.816901 
589.500000	1.838030 
590.000000	1.863416 
590.500000	1.859136 
591.000000	1.827931 
591.500000	1.804772 
592.000000	1.813265 
592.500000	1.818250 
593.000000	1.794068 
593.500000	1.763545 
594.000000	1.779015 
594.500000	1.812151 
595.000000	1.829492 
595.500000	1.810121 
596.000000	1.783484 
596.500000	1.750121 
597.000000	1.729515 
597.500000	1.716984 
598.000000	1.731689 
598.500000	1.743886 
599.000000	1.739462 
599.500000	1.718886 
600.000000	1.704068 
600.500000	1.689484 
601.000000	1.666825 
601.500000	1.628803 
602.000000	1.602272 
602.500000	1.602356 
603.000000	1.618977 
603.500000	1.632409 
604.000000	1.620113 
604.500000	1.608159 
605.000000	1.607068 
605.500000	1.623840 
606.000000	1.615348 
606.500000	1.602750 
607.000000	1.587818 
607.500000	1.593818 
608.000000	1.581810 
608.500000	1.572765 
609.000000	1.560651 
609.500000	1.556174 
610.000000	1.545946 
610.500000	1.541598 
611.000000	1.536750 
611.500000	1.524242 
612.000000	1.504469 
612.500000	1.504477 
613.000000	1.519560 
613.500000	1.516553 
614.000000	1.481893 
614.500000	1.449924 
615.000000	1.434378 
615.500000	1.428939 
616.000000	1.418166 
616.500000	1.405393 
617.000000	1.408280 
617.500000	1.416878 
618.000000	1.422393 
618.500000	1.410113 
619.000000	1.388075 
619.500000	1.361484 
620.000000	1.346575 
620.500000	1.338333 
621.000000	1.336560 
621.500000	1.337848 
622.000000	1.333636 
622.500000	1.321136 
623.000000	1.309659 
623.500000	1.305757 
624.000000	1.291462 
624.500000	1.281121 
625.000000	1.275939 
625.500000	1.290318 
626.000000	1.281886 
626.500000	1.255643 
627.000000	1.218590 
627.500000	1.222484 
628.000000	1.234280 
628.500000	1.233075 
629.000000	1.214424 
629.500000	1.205954 
630.000000	1.207871 
630.500000	1.198257 
631.000000	1.181704 
631.500000	1.175030 
632.000000	1.183136 
632.500000	1.169909 
633.000000	1.135363 
633.500000	1.104598 
634.000000	1.098500 
634.500000	1.107136 
635.000000	1.095537 
635.500000	1.068886 
636.000000	1.053075 
636.500000	1.059833 
637.000000	1.070825 
637.500000	1.069212 
638.000000	1.064363 
638.500000	1.045030 
639.000000	1.026250 
639.500000	1.013765 
640.000000	1.015734 
640.500000	1.019765 
641.000000	1.010143 
641.500000	1.002946 
642.000000	0.994166 
642.500000	0.997803 
643.000000	0.977462 
643.500000	0.967136 
644.000000	0.957704 
644.500000	0.961863 
645.000000	0.942030 
645.500000	0.909666 
646.000000	0.880712 
646.500000	0.880446 
647.000000	0.890340 
647.500000	0.901553 
648.000000	0.902446 
648.500000	0.890295 
649.000000	0.876787 
649.500000	0.885333 
650.000000	0.915999 

