PE FL                   SPECTRUM    ASCII       PEDS        1.60        
  -1
01#187.SP
02/03/17
05:41:33.00
02/03/17
05:43:51.00


530.000000
1









LS55
280.00
5.00
5.00
SCAN
1
20
100
100
0
100
0
1
0
1
7
ON
420 390 
1 0 0
#HDR
-1
-1
#GR
NM

0.00002384185791015625
0.0
310.000000
0.500000
441
8
0.751128
-0.000484
#DATA
310.000000	0.057000  
310.500000	0.027583  
311.000000	0.014636  
311.500000	0.016545  
312.000000	0.020159  
312.500000	0.021015  
313.000000	0.018704  
313.500000	0.015939  
314.000000	0.014318  
314.500000	0.018772  
315.000000	0.024613  
315.500000	0.027000  
316.000000	0.023136  
316.500000	0.021545  
317.000000	0.021590  
317.500000	0.019840  
318.000000	0.012515  
318.500000	0.006765  
319.000000	0.006613  
319.500000	0.011825  
320.000000	0.013386  
320.500000	0.010045  
321.000000	0.005499  
321.500000	0.005977  
322.000000	0.011219  
322.500000	0.016128  
323.000000	0.018227  
323.500000	0.022643  
324.000000	0.025257  
324.500000	0.022590  
325.000000	0.012871  
325.500000	0.008318  
326.000000	0.009590  
326.500000	0.014068  
327.000000	0.011318  
327.500000	0.007174  
328.000000	0.003439  
328.500000	0.004356  
329.000000	0.006136  
329.500000	0.007446  
330.000000	0.005674  
330.500000	0.003674  
331.000000	0.001537  
331.500000	0.003113  
332.000000	0.009287  
332.500000	0.015318  
333.000000	0.013962  
333.500000	0.006696  
334.000000	0.003962  
334.500000	0.006568  
335.000000	0.011659  
335.500000	0.012568  
336.000000	0.011939  
336.500000	0.007560  
337.000000	0.003477  
337.500000	0.001409  
338.000000	0.002606  
338.500000	0.003931  
339.000000	0.005522  
339.500000	0.007090  
340.000000	0.006136  
340.500000	0.002621  
341.000000	-0.000409 
341.500000	0.000545  
342.000000	0.002886  
342.500000	0.004606  
343.000000	0.003848  
343.500000	0.002333  
344.000000	0.000325  
344.500000	0.001303  
345.000000	0.002818  
345.500000	0.003939  
346.000000	0.001969  
346.500000	0.001515  
347.000000	0.002575  
347.500000	0.004060  
348.000000	0.002318  
348.500000	0.000424  
349.000000	-0.000484 
349.500000	0.000000  
350.000000	0.000000  
350.500000	0.000000  
351.000000	0.000000  
351.500000	0.000000  
352.000000	0.000000  
352.500000	0.000000  
353.000000	-0.000060 
353.500000	-0.000174 
354.000000	0.000545  
354.500000	0.001530  
355.000000	0.001969  
355.500000	0.000984  
356.000000	0.000757  
356.500000	0.001287  
357.000000	0.002030  
357.500000	0.001159  
358.000000	0.000212  
358.500000	-0.000242 
359.000000	0.000000  
359.500000	0.000000  
360.000000	-0.000242 
360.500000	-0.000454 
361.000000	0.001909  
361.500000	0.004969  
362.000000	0.006128  
362.500000	0.003916  
363.000000	0.002651  
363.500000	0.002833  
364.000000	0.003068  
364.500000	0.001022  
365.000000	0.001060  
365.500000	0.002818  
366.000000	0.004000  
366.500000	0.002083  
367.000000	0.000553  
367.500000	0.001075  
368.000000	0.005295  
368.500000	0.008522  
369.000000	0.008446  
369.500000	0.006530  
370.000000	0.009174  
370.500000	0.014969  
371.000000	0.016492  
371.500000	0.010454  
372.000000	0.004393  
372.500000	0.004984  
373.000000	0.011848  
373.500000	0.019371  
374.000000	0.022060  
374.500000	0.024060  
375.000000	0.027340  
375.500000	0.032439  
376.000000	0.032477  
376.500000	0.031189  
377.000000	0.027553  
377.500000	0.025015  
378.000000	0.019878  
378.500000	0.020083  
379.000000	0.023507  
379.500000	0.034772  
380.000000	0.042030  
380.500000	0.046477  
381.000000	0.047234  
381.500000	0.057469  
382.000000	0.073257  
382.500000	0.083863  
383.000000	0.079939  
383.500000	0.069530  
384.000000	0.069174  
384.500000	0.087060  
385.000000	0.111712  
385.500000	0.121606  
386.000000	0.117378  
386.500000	0.112598  
387.000000	0.108136  
387.500000	0.105454  
388.000000	0.104522  
388.500000	0.125128  
389.000000	0.148553  
389.500000	0.166151  
390.000000	0.160242  
390.500000	0.146196  
391.000000	0.131969  
391.500000	0.142204  
392.000000	0.162068  
392.500000	0.167643  
393.000000	0.160833  
393.500000	0.157613  
394.000000	0.171651  
394.500000	0.182113  
395.000000	0.192280  
395.500000	0.199378  
396.000000	0.211507  
396.500000	0.208318  
397.000000	0.203424  
397.500000	0.199250  
398.000000	0.210196  
398.500000	0.227712  
399.000000	0.247015  
399.500000	0.254901  
400.000000	0.253212  
400.500000	0.242553  
401.000000	0.243015  
401.500000	0.253303  
402.000000	0.267424  
402.500000	0.260886  
403.000000	0.258696  
403.500000	0.273356  
404.000000	0.302477  
404.500000	0.309083  
405.000000	0.298621  
405.500000	0.291924  
406.000000	0.299151  
406.500000	0.308212  
407.000000	0.314787  
407.500000	0.316931  
408.000000	0.320196  
408.500000	0.323537  
409.000000	0.326977  
409.500000	0.325121  
410.000000	0.325462  
410.500000	0.338045  
411.000000	0.359696  
411.500000	0.366689  
412.000000	0.357545  
412.500000	0.349462  
413.000000	0.360295  
413.500000	0.381280  
414.000000	0.403598  
414.500000	0.403037  
415.000000	0.393931  
415.500000	0.389545  
416.000000	0.402810  
416.500000	0.417613  
417.000000	0.432719  
417.500000	0.446939  
418.000000	0.463780  
418.500000	0.469833  
419.000000	0.480310  
419.500000	0.492962  
420.000000	0.494689  
420.500000	0.473363  
421.000000	0.463560  
421.500000	0.479287  
422.000000	0.501568  
422.500000	0.512643  
423.000000	0.519939  
423.500000	0.537484  
424.000000	0.545893  
424.500000	0.544257  
425.000000	0.546871  
425.500000	0.567863  
426.000000	0.574409  
426.500000	0.563121  
427.000000	0.554613  
427.500000	0.562727  
428.000000	0.568378  
428.500000	0.570643  
429.000000	0.577795  
429.500000	0.595704  
430.000000	0.603757  
430.500000	0.600242  
431.000000	0.600409  
431.500000	0.611590  
432.000000	0.620553  
432.500000	0.622068  
433.000000	0.614272  
433.500000	0.612848  
434.000000	0.622969  
434.500000	0.637469  
435.000000	0.648007  
435.500000	0.650757  
436.000000	0.652333  
436.500000	0.663310  
437.000000	0.678234  
437.500000	0.678515  
438.000000	0.663833  
438.500000	0.652924  
439.000000	0.662659  
439.500000	0.673984  
440.000000	0.675795  
440.500000	0.679606  
441.000000	0.693378  
441.500000	0.702363  
442.000000	0.701204  
442.500000	0.698022  
443.000000	0.706356  
443.500000	0.718742  
444.000000	0.728431  
444.500000	0.727886  
445.000000	0.724856  
445.500000	0.717106  
446.000000	0.701681  
446.500000	0.688204  
447.000000	0.685727  
447.500000	0.695098  
448.000000	0.705325  
448.500000	0.714287  
449.000000	0.725454  
449.500000	0.740318  
450.000000	0.748992  
450.500000	0.745181  
451.000000	0.751128  
451.500000	0.748810  
452.000000	0.741431  
452.500000	0.715507  
453.000000	0.707068  
453.500000	0.705409  
454.000000	0.711022  
454.500000	0.697727  
455.000000	0.698045  
455.500000	0.711795  
456.000000	0.730454  
456.500000	0.729325  
457.000000	0.722681  
457.500000	0.716022  
458.000000	0.716765  
458.500000	0.712734  
459.000000	0.712712  
459.500000	0.716818  
460.000000	0.724295  
460.500000	0.710386  
461.000000	0.686234  
461.500000	0.670060  
462.000000	0.677515  
462.500000	0.698204  
463.000000	0.717719  
463.500000	0.725181  
464.000000	0.727636  
464.500000	0.725113  
465.000000	0.720962  
465.500000	0.714772  
466.000000	0.715840  
466.500000	0.708719  
467.000000	0.700916  
467.500000	0.688446  
468.000000	0.697189  
468.500000	0.710909  
469.000000	0.719848  
469.500000	0.713757  
470.000000	0.706719  
470.500000	0.699553  
471.000000	0.698727  
471.500000	0.706765  
472.000000	0.713977  
472.500000	0.712234  
473.000000	0.703386  
473.500000	0.697734  
474.000000	0.703303  
474.500000	0.707053  
475.000000	0.704204  
475.500000	0.695636  
476.000000	0.697696  
476.500000	0.709333  
477.000000	0.713446  
477.500000	0.702075  
478.000000	0.692454  
478.500000	0.694606  
479.000000	0.703946  
479.500000	0.714272  
480.000000	0.721825  
480.500000	0.717560  
481.000000	0.716363  
481.500000	0.726143  
482.000000	0.734575  
482.500000	0.726166  
483.000000	0.701030  
483.500000	0.692249  
484.000000	0.711696  
484.500000	0.742378  
485.000000	0.746962  
485.500000	0.726689  
486.000000	0.696227  
486.500000	0.688143  
487.000000	0.694363  
487.500000	0.692621  
488.000000	0.683045  
488.500000	0.677257  
489.000000	0.689560  
489.500000	0.705174  
490.000000	0.704113  
490.500000	0.675462  
491.000000	0.649636  
491.500000	0.633507  
492.000000	0.637303  
492.500000	0.642333  
493.000000	0.644409  
493.500000	0.636053  
494.000000	0.628439  
494.500000	0.637636  
495.000000	0.652287  
495.500000	0.658424  
496.000000	0.645666  
496.500000	0.634143  
497.000000	0.622401  
497.500000	0.621189  
498.000000	0.616068  
498.500000	0.608499  
499.000000	0.596181  
499.500000	0.584719  
500.000000	0.585106  
500.500000	0.577787  
501.000000	0.567818  
501.500000	0.554621  
502.000000	0.561848  
502.500000	0.568068  
503.000000	0.570257  
503.500000	0.557295  
504.000000	0.553090  
504.500000	0.551863  
505.000000	0.552962  
505.500000	0.545325  
506.000000	0.538878  
506.500000	0.532628  
507.000000	0.533689  
507.500000	0.543515  
508.000000	0.559227  
508.500000	0.564856  
509.000000	0.547204  
509.500000	0.527439  
510.000000	0.511810  
510.500000	0.513696  
511.000000	0.512477  
511.500000	0.509977  
512.000000	0.499840  
512.500000	0.489643  
513.000000	0.482060  
513.500000	0.484166  
514.000000	0.501196  
514.500000	0.513674  
515.000000	0.505537  
515.500000	0.483946  
516.000000	0.479583  
516.500000	0.496113  
517.000000	0.496742  
517.500000	0.470712  
518.000000	0.434310  
518.500000	0.419598  
519.000000	0.409113  
519.500000	0.406462  
520.000000	0.404492  
520.500000	0.418128  
521.000000	0.425318  
521.500000	0.424825  
522.000000	0.424045  
522.500000	0.425780  
523.000000	0.421856  
523.500000	0.415984  
524.000000	0.418492  
524.500000	0.422325  
525.000000	0.418856  
525.500000	0.399878  
526.000000	0.388772  
526.500000	0.391007  
527.000000	0.407886  
527.500000	0.414568  
528.000000	0.407772  
528.500000	0.386431  
529.000000	0.376083  
529.500000	0.360310  
530.000000	0.336000  

