PE FL                   SPECTRUM    ASCII       PEDS        1.60        
  -1
01#184.SP
02/03/17
05:33:03.00
02/03/17
05:35:17.00


470.000000
1









LS55
500.00
5.00
5.00
SCAN
1
20
100
100
0
100
0
0
0
1
7
ON
650 365 
1 0 0
#HDR
-1
-1
#GR
NM

0.00002384185791015625
0.0
270.000000
0.500000
401
8
3.281500
0.530727
#DATA
270.000000	0.554000 
270.500000	0.610083 
271.000000	0.634318 
271.500000	0.628219 
272.000000	0.619878 
272.500000	0.627954 
273.000000	0.648886 
273.500000	0.670083 
274.000000	0.666969 
274.500000	0.640409 
275.000000	0.616446 
275.500000	0.616916 
276.000000	0.641696 
276.500000	0.662863 
277.000000	0.667007 
277.500000	0.654234 
278.000000	0.638196 
278.500000	0.617863 
279.000000	0.601159 
279.500000	0.594568 
280.000000	0.598492 
280.500000	0.612151 
281.000000	0.615469 
281.500000	0.622386 
282.000000	0.629439 
282.500000	0.638734 
283.000000	0.629909 
283.500000	0.612818 
284.000000	0.593704 
284.500000	0.586727 
285.000000	0.592454 
285.500000	0.596628 
286.000000	0.591113 
286.500000	0.574727 
287.000000	0.568787 
287.500000	0.571818 
288.000000	0.573037 
288.500000	0.560863 
289.000000	0.561666 
289.500000	0.575681 
290.000000	0.588128 
290.500000	0.572424 
291.000000	0.549696 
291.500000	0.532431 
292.000000	0.532984 
292.500000	0.531719 
293.000000	0.531166 
293.500000	0.530727 
294.000000	0.538810 
294.500000	0.544507 
295.000000	0.539628 
295.500000	0.535931 
296.000000	0.542227 
296.500000	0.558272 
297.000000	0.584704 
297.500000	0.628553 
298.000000	0.679704 
298.500000	0.728030 
299.000000	0.774219 
299.500000	0.831674 
300.000000	0.890469 
300.500000	0.947356 
301.000000	0.982659 
301.500000	1.031833 
302.000000	1.096333 
302.500000	1.188409 
303.000000	1.256954 
303.500000	1.301545 
304.000000	1.333696 
304.500000	1.404553 
305.000000	1.472651 
305.500000	1.515227 
306.000000	1.514083 
306.500000	1.511106 
307.000000	1.538916 
307.500000	1.603401 
308.000000	1.659401 
308.500000	1.675992 
309.000000	1.669507 
309.500000	1.666181 
310.000000	1.686007 
310.500000	1.696507 
311.000000	1.708545 
311.500000	1.727946 
312.000000	1.772143 
312.500000	1.802765 
313.000000	1.792386 
313.500000	1.744045 
314.000000	1.715575 
314.500000	1.712712 
315.000000	1.730227 
315.500000	1.747696 
316.000000	1.772189 
316.500000	1.785598 
317.000000	1.789810 
317.500000	1.786666 
318.000000	1.803825 
318.500000	1.812636 
319.000000	1.807848 
319.500000	1.782045 
320.000000	1.769984 
320.500000	1.767280 
321.000000	1.775250 
321.500000	1.787121 
322.000000	1.811356 
322.500000	1.830962 
323.000000	1.839227 
323.500000	1.843000 
324.000000	1.843295 
324.500000	1.843393 
325.000000	1.840022 
325.500000	1.858371 
326.000000	1.897007 
326.500000	1.932446 
327.000000	1.943477 
327.500000	1.939515 
328.000000	1.924780 
328.500000	1.911954 
329.000000	1.912439 
329.500000	1.923954 
330.000000	1.952931 
330.500000	2.001196 
331.000000	2.057727 
331.500000	2.098075 
332.000000	2.102189 
332.500000	2.086969 
333.000000	2.067810 
333.500000	2.058727 
334.000000	2.061848 
334.500000	2.097022 
335.000000	2.146628 
335.500000	2.202901 
336.000000	2.223121 
336.500000	2.209553 
337.000000	2.199856 
337.500000	2.236159 
338.000000	2.264234 
338.500000	2.245704 
339.000000	2.206204 
339.500000	2.222568 
340.000000	2.281007 
340.500000	2.330901 
341.000000	2.367931 
341.500000	2.395204 
342.000000	2.418356 
342.500000	2.410659 
343.000000	2.404553 
343.500000	2.400606 
344.000000	2.414946 
344.500000	2.429568 
345.000000	2.465250 
345.500000	2.498287 
346.000000	2.545666 
346.500000	2.580424 
347.000000	2.621765 
347.500000	2.644590 
348.000000	2.656765 
348.500000	2.641772 
349.000000	2.637545 
349.500000	2.639734 
350.000000	2.669810 
350.500000	2.695818 
351.000000	2.712113 
351.500000	2.724674 
352.000000	2.757931 
352.500000	2.799803 
353.000000	2.849469 
353.500000	2.875454 
354.000000	2.892924 
354.500000	2.882166 
355.000000	2.872522 
355.500000	2.859204 
356.000000	2.861575 
356.500000	2.871250 
357.000000	2.913030 
357.500000	2.970909 
358.000000	3.025825 
358.500000	3.054174 
359.000000	3.072310 
359.500000	3.091492 
360.000000	3.107431 
360.500000	3.106704 
361.000000	3.108189 
361.500000	3.127553 
362.000000	3.160333 
362.500000	3.179674 
363.000000	3.177909 
363.500000	3.183560 
364.000000	3.224159 
364.500000	3.270500 
365.000000	3.281500 
365.500000	3.241522 
366.000000	3.209409 
366.500000	3.209795 
367.000000	3.233250 
367.500000	3.212863 
368.000000	3.195174 
368.500000	3.212765 
369.000000	3.250174 
369.500000	3.240931 
370.000000	3.193303 
370.500000	3.160386 
371.000000	3.163181 
371.500000	3.150659 
372.000000	3.109590 
372.500000	3.075666 
373.000000	3.075727 
373.500000	3.076931 
374.000000	3.047143 
374.500000	2.988560 
375.000000	2.952901 
375.500000	2.959416 
376.000000	2.956166 
376.500000	2.918507 
377.000000	2.856734 
377.500000	2.807030 
378.000000	2.771257 
378.500000	2.732916 
379.000000	2.706500 
379.500000	2.680825 
380.000000	2.656037 
380.500000	2.598439 
381.000000	2.560378 
381.500000	2.524848 
382.000000	2.496227 
382.500000	2.439939 
383.000000	2.401810 
383.500000	2.376765 
384.000000	2.369765 
384.500000	2.358356 
385.000000	2.345795 
385.500000	2.304280 
386.000000	2.239060 
386.500000	2.171393 
387.000000	2.144522 
387.500000	2.122810 
388.000000	2.100068 
388.500000	2.056825 
389.000000	2.021704 
389.500000	1.980204 
390.000000	1.963075 
390.500000	1.935681 
391.000000	1.913871 
391.500000	1.879992 
392.000000	1.852719 
392.500000	1.812984 
393.000000	1.766151 
393.500000	1.729666 
394.000000	1.733727 
394.500000	1.738378 
395.000000	1.706409 
395.500000	1.639356 
396.000000	1.595189 
396.500000	1.583037 
397.000000	1.577507 
397.500000	1.547712 
398.000000	1.509446 
398.500000	1.480712 
399.000000	1.462204 
399.500000	1.443522 
400.000000	1.409734 
400.500000	1.366780 
401.000000	1.332893 
401.500000	1.323893 
402.000000	1.327378 
402.500000	1.310825 
403.000000	1.281492 
403.500000	1.245196 
404.000000	1.225363 
404.500000	1.207598 
405.000000	1.196310 
405.500000	1.173765 
406.000000	1.141348 
406.500000	1.113931 
407.000000	1.106939 
407.500000	1.116742 
408.000000	1.112000 
408.500000	1.094159 
409.000000	1.063068 
409.500000	1.028818 
410.000000	0.985469 
410.500000	0.953689 
411.000000	0.940363 
411.500000	0.929098 
412.000000	0.915083 
412.500000	0.904515 
413.000000	0.913924 
413.500000	0.921393 
414.000000	0.913098 
414.500000	0.896484 
415.000000	0.883386 
415.500000	0.881212 
416.000000	0.875560 
416.500000	0.873060 
417.000000	0.863954 
417.500000	0.853121 
418.000000	0.833060 
418.500000	0.819636 
419.000000	0.807833 
419.500000	0.794393 
420.000000	0.774022 
420.500000	0.763280 
421.000000	0.766878 
421.500000	0.776439 
422.000000	0.766977 
422.500000	0.741484 
423.000000	0.715257 
423.500000	0.708833 
424.000000	0.713515 
424.500000	0.717106 
425.000000	0.711340 
425.500000	0.704825 
426.000000	0.698424 
426.500000	0.693340 
427.000000	0.681689 
427.500000	0.674219 
428.000000	0.669030 
428.500000	0.674825 
429.000000	0.683553 
429.500000	0.687977 
430.000000	0.681128 
430.500000	0.676537 
431.000000	0.680348 
431.500000	0.690666 
432.000000	0.695856 
432.500000	0.696621 
433.000000	0.697159 
433.500000	0.696227 
434.000000	0.686401 
434.500000	0.683075 
435.000000	0.691242 
435.500000	0.690712 
436.000000	0.669462 
436.500000	0.646772 
437.000000	0.648537 
437.500000	0.663878 
438.000000	0.660340 
438.500000	0.645386 
439.000000	0.642795 
439.500000	0.653477 
440.000000	0.653590 
440.500000	0.647719 
441.000000	0.646227 
441.500000	0.655393 
442.000000	0.657234 
442.500000	0.653439 
443.000000	0.658984 
443.500000	0.672181 
444.000000	0.671977 
444.500000	0.650628 
445.000000	0.636090 
445.500000	0.650954 
446.000000	0.679068 
446.500000	0.680378 
447.000000	0.661689 
447.500000	0.645333 
448.000000	0.646772 
448.500000	0.637621 
449.000000	0.615659 
449.500000	0.600727 
450.000000	0.612409 
450.500000	0.633704 
451.000000	0.647416 
451.500000	0.649000 
452.000000	0.647590 
452.500000	0.645575 
453.000000	0.643340 
453.500000	0.642098 
454.000000	0.646621 
454.500000	0.650886 
455.000000	0.649757 
455.500000	0.640265 
456.000000	0.630848 
456.500000	0.629969 
457.000000	0.635045 
457.500000	0.644765 
458.000000	0.650446 
458.500000	0.647393 
459.000000	0.637833 
459.500000	0.632969 
460.000000	0.638371 
460.500000	0.640681 
461.000000	0.634022 
461.500000	0.625318 
462.000000	0.626340 
462.500000	0.637075 
463.000000	0.645636 
463.500000	0.654954 
464.000000	0.660848 
464.500000	0.676909 
465.000000	0.689765 
465.500000	0.703143 
466.000000	0.712704 
466.500000	0.739499 
467.000000	0.768325 
467.500000	0.793121 
468.000000	0.816053 
468.500000	0.856348 
469.000000	0.909363 
469.500000	0.961484 
470.000000	1.003000 

