PE FL                   SPECTRUM    ASCII       PEDS        1.60        
  -1
01#181.SP
02/03/17
05:25:03.00
02/03/17
05:26:44.00


508.500000
1









LS55
310.00
5.00
5.00
SCAN
1
20
100
100
0
100
0
1
0
1
7
ON
418 310 
1 0 0
#HDR
-1
-1
#GR
NM

0.00002384185791015625
0.0
350.000000
0.500000
318
8
2.292833
0.001803
#DATA
350.000000	0.004000 
350.500000	0.002037 
351.000000	0.001803 
351.500000	0.003151 
352.000000	0.003871 
352.500000	0.005249 
353.000000	0.005795 
353.500000	0.005454 
354.000000	0.002916 
354.500000	0.002227 
355.000000	0.002659 
355.500000	0.003636 
356.000000	0.003295 
356.500000	0.002484 
357.000000	0.003030 
357.500000	0.006121 
358.000000	0.009477 
358.500000	0.011659 
359.000000	0.010469 
359.500000	0.008166 
360.000000	0.005060 
360.500000	0.005583 
361.000000	0.008151 
361.500000	0.013113 
362.000000	0.014295 
362.500000	0.012643 
363.000000	0.009098 
363.500000	0.007833 
364.000000	0.009386 
364.500000	0.014954 
365.000000	0.020613 
365.500000	0.025954 
366.000000	0.028401 
366.500000	0.028174 
367.000000	0.025545 
367.500000	0.023901 
368.000000	0.025772 
368.500000	0.035295 
369.000000	0.045068 
369.500000	0.052189 
370.000000	0.053500 
370.500000	0.055515 
371.000000	0.052643 
371.500000	0.054166 
372.000000	0.059333 
372.500000	0.074628 
373.000000	0.086219 
373.500000	0.093780 
374.000000	0.092022 
374.500000	0.091962 
375.000000	0.098325 
375.500000	0.123840 
376.000000	0.145371 
376.500000	0.151583 
377.000000	0.137772 
377.500000	0.135719 
378.000000	0.148643 
378.500000	0.174803 
379.000000	0.192007 
379.500000	0.198462 
380.000000	0.195803 
380.500000	0.196037 
381.000000	0.206621 
381.500000	0.218431 
382.000000	0.231500 
382.500000	0.246356 
383.000000	0.272068 
383.500000	0.289348 
384.000000	0.302500 
384.500000	0.299590 
385.000000	0.302022 
385.500000	0.305469 
386.000000	0.324742 
386.500000	0.346500 
387.000000	0.372886 
387.500000	0.387151 
388.000000	0.399318 
388.500000	0.411045 
389.000000	0.430007 
389.500000	0.446931 
390.000000	0.453037 
390.500000	0.450295 
391.000000	0.456348 
391.500000	0.475696 
392.000000	0.499583 
392.500000	0.513181 
393.000000	0.517871 
393.500000	0.526590 
394.000000	0.544492 
394.500000	0.566818 
395.000000	0.596393 
395.500000	0.637333 
396.000000	0.673272 
396.500000	0.697060 
397.000000	0.703280 
397.500000	0.706621 
398.000000	0.707704 
398.500000	0.713969 
399.000000	0.719030 
399.500000	0.734128 
400.000000	0.755227 
400.500000	0.790446 
401.000000	0.828689 
401.500000	0.853310 
402.000000	0.858704 
402.500000	0.858492 
403.000000	0.863840 
403.500000	0.885840 
404.000000	0.913318 
404.500000	0.931659 
405.000000	0.927674 
405.500000	0.920136 
406.000000	0.930128 
406.500000	0.973939 
407.000000	1.031772 
407.500000	1.080227 
408.000000	1.095022 
408.500000	1.087893 
409.000000	1.073742 
409.500000	1.080227 
410.000000	1.112492 
410.500000	1.154863 
411.000000	1.174787 
411.500000	1.175090 
412.000000	1.187431 
412.500000	1.232196 
413.000000	1.282106 
413.500000	1.302393 
414.000000	1.306234 
414.500000	1.328242 
415.000000	1.368143 
415.500000	1.404924 
416.000000	1.413598 
416.500000	1.402734 
417.000000	1.409090 
417.500000	1.453181 
418.000000	1.508181 
418.500000	1.532825 
419.000000	1.538053 
419.500000	1.546681 
420.000000	1.574121 
420.500000	1.603500 
421.000000	1.630484 
421.500000	1.656075 
422.000000	1.679818 
422.500000	1.711537 
423.000000	1.742075 
423.500000	1.777757 
424.000000	1.800787 
424.500000	1.825212 
425.000000	1.832681 
425.500000	1.836401 
426.000000	1.836265 
426.500000	1.854848 
427.000000	1.887000 
427.500000	1.917984 
428.000000	1.935568 
428.500000	1.941863 
429.000000	1.948825 
429.500000	1.956613 
430.000000	1.969893 
430.500000	1.978666 
431.000000	1.981227 
431.500000	1.983401 
432.000000	2.000734 
432.500000	2.026083 
433.000000	2.056310 
433.500000	2.075863 
434.000000	2.093234 
434.500000	2.096500 
435.000000	2.115583 
435.500000	2.143598 
436.000000	2.180348 
436.500000	2.181212 
437.000000	2.174439 
437.500000	2.165295 
438.000000	2.188962 
438.500000	2.205136 
439.000000	2.216325 
439.500000	2.195810 
440.000000	2.192545 
440.500000	2.197954 
441.000000	2.228772 
441.500000	2.238143 
442.000000	2.237416 
442.500000	2.209378 
443.000000	2.204356 
443.500000	2.226515 
444.000000	2.272280 
444.500000	2.292833 
445.000000	2.280916 
445.500000	2.232310 
446.000000	2.197250 
446.500000	2.192681 
447.000000	2.228924 
447.500000	2.261257 
448.000000	2.282924 
448.500000	2.281962 
449.000000	2.280333 
449.500000	2.263560 
450.000000	2.243636 
450.500000	2.207977 
451.000000	2.181000 
451.500000	2.180651 
452.000000	2.193704 
452.500000	2.189818 
453.000000	2.175310 
453.500000	2.183287 
454.000000	2.215037 
454.500000	2.227492 
455.000000	2.207462 
455.500000	2.189787 
456.000000	2.187378 
456.500000	2.184530 
457.000000	2.179681 
457.500000	2.178378 
458.000000	2.177106 
458.500000	2.173583 
459.000000	2.158166 
459.500000	2.136500 
460.000000	2.107075 
460.500000	2.093848 
461.000000	2.105234 
461.500000	2.128386 
462.000000	2.131128 
462.500000	2.126757 
463.000000	2.131484 
463.500000	2.143227 
464.000000	2.133757 
464.500000	2.106378 
465.000000	2.081022 
465.500000	2.097227 
466.000000	2.137090 
466.500000	2.170272 
467.000000	2.146984 
467.500000	2.111492 
468.000000	2.088719 
468.500000	2.092234 
469.000000	2.085257 
469.500000	2.076431 
470.000000	2.075128 
470.500000	2.083628 
471.000000	2.090159 
471.500000	2.091568 
472.000000	2.086083 
472.500000	2.058340 
473.000000	2.039333 
473.500000	2.031643 
474.000000	2.037000 
474.500000	2.029053 
475.000000	2.016545 
475.500000	1.997431 
476.000000	2.000598 
476.500000	2.016515 
477.000000	2.022651 
477.500000	2.021416 
478.000000	2.030348 
478.500000	2.063901 
479.000000	2.066272 
479.500000	2.023106 
480.000000	1.974151 
480.500000	1.971636 
481.000000	1.975045 
481.500000	1.983386 
482.000000	1.986446 
482.500000	1.988507 
483.000000	1.981303 
483.500000	1.970446 
484.000000	1.961696 
484.500000	1.942696 
485.000000	1.919439 
485.500000	1.901174 
486.000000	1.921159 
486.500000	1.945606 
487.000000	1.980628 
487.500000	1.995318 
488.000000	1.992060 
488.500000	1.957454 
489.000000	1.924393 
489.500000	1.897416 
490.000000	1.891734 
490.500000	1.900128 
491.000000	1.919454 
491.500000	1.921621 
492.000000	1.905393 
492.500000	1.878151 
493.000000	1.854454 
493.500000	1.830643 
494.000000	1.806651 
494.500000	1.801803 
495.000000	1.801886 
495.500000	1.798939 
496.000000	1.800348 
496.500000	1.827621 
497.000000	1.857166 
497.500000	1.865386 
498.000000	1.850810 
498.500000	1.843280 
499.000000	1.825227 
499.500000	1.790181 
500.000000	1.758507 
500.500000	1.773242 
501.000000	1.805500 
501.500000	1.819666 
502.000000	1.792310 
502.500000	1.758189 
503.000000	1.735939 
503.500000	1.742636 
504.000000	1.769060 
504.500000	1.792674 
505.000000	1.778287 
505.500000	1.726969 
506.000000	1.694522 
506.500000	1.695795 
507.000000	1.708606 
507.500000	1.697204 
508.000000	1.687787 
508.500000	1.700000 

