Created as New Dataset,
nm,%T
800.0,24.76
799.0,24.20
798.0,25.51
797.0,25.26
796.0,24.93
795.0,24.09
794.0,24.93
793.0,24.88
792.0,23.92
791.0,25.02
790.0,24.90
789.0,23.98
788.0,25.09
787.0,23.97
786.0,24.98
785.0,24.82
784.0,24.73
783.0,24.65
782.0,24.24
781.0,24.59
780.0,24.85
779.0,25.08
778.0,25.05
777.0,24.64
776.0,24.58
775.0,24.24
774.0,24.51
773.0,24.38
772.0,25.26
771.0,24.53
770.0,24.71
769.0,24.93
768.0,24.45
767.0,24.11
766.0,24.33
765.0,23.93
764.0,24.16
763.0,24.36
762.0,24.82
761.0,23.91
760.0,24.33
759.0,24.22
758.0,23.92
757.0,24.28
756.0,24.57
755.0,24.22
754.0,24.07
753.0,23.65
752.0,23.83
751.0,23.97
750.0,24.43
749.0,23.72
748.0,23.54
747.0,24.18
746.0,23.91
745.0,24.39
744.0,24.23
743.0,23.64
742.0,23.52
741.0,23.19
740.0,23.77
739.0,23.16
738.0,23.79
737.0,23.24
736.0,23.47
735.0,24.15
734.0,24.09
733.0,23.44
732.0,23.96
731.0,23.62
730.0,23.89
729.0,23.55
728.0,23.48
727.0,23.88
726.0,23.38
725.0,23.27
724.0,23.38
723.0,23.96
722.0,24.02
721.0,23.73
720.0,23.29
719.0,23.55
718.0,23.53
717.0,23.66
716.0,23.22
715.0,23.39
714.0,23.71
713.0,23.46
712.0,23.43
711.0,23.43
710.0,23.58
709.0,23.20
708.0,23.15
707.0,23.38
706.0,23.33
705.0,23.20
704.0,23.32
703.0,23.21
702.0,23.09
701.0,23.20
700.0,23.23
699.0,23.16
698.0,22.88
697.0,22.67
696.0,23.05
695.0,23.10
694.0,22.88
693.0,23.11
692.0,23.14
691.0,23.17
690.0,23.35
689.0,23.23
688.0,23.11
687.0,22.72
686.0,22.89
685.0,22.95
684.0,23.00
683.0,22.61
682.0,22.64
681.0,22.74
680.0,22.43
679.0,22.74
678.0,23.01
677.0,22.81
676.0,22.58
675.0,22.50
674.0,22.38
673.0,22.46
672.0,22.74
671.0,22.79
670.0,22.41
669.0,22.26
668.0,22.14
667.0,22.29
666.0,22.49
665.0,22.23
664.0,22.09
663.0,22.08
662.0,22.03
661.0,22.39
660.0,22.46
659.0,22.06
658.0,21.92
657.0,22.02
656.0,22.10
655.0,22.26
654.0,22.38
653.0,22.15
652.0,21.79
651.0,21.67
650.0,21.88
649.0,22.04
648.0,21.92
647.0,21.79
646.0,21.45
645.0,21.42
644.0,21.61
643.0,21.69
642.0,21.85
641.0,21.85
640.0,21.66
639.0,21.64
638.0,21.70
637.0,21.76
636.0,21.53
635.0,21.47
634.0,21.65
633.0,21.51
632.0,21.31
631.0,21.48
630.0,21.50
629.0,21.46
628.0,21.54
627.0,21.39
626.0,21.17
625.0,21.33
624.0,21.40
623.0,21.31
622.0,21.36
621.0,21.18
620.0,20.99
619.0,21.03
618.0,21.17
617.0,21.01
616.0,20.89
615.0,20.86
614.0,20.80
613.0,20.90
612.0,20.99
611.0,20.73
610.0,20.50
609.0,20.78
608.0,20.88
607.0,20.81
606.0,20.78
605.0,20.84
604.0,20.64
603.0,20.50
602.0,20.66
601.0,20.72
600.0,20.63
599.0,20.38
598.0,20.40
597.0,20.37
596.0,20.39
595.0,20.52
594.0,20.50
593.0,20.40
592.0,20.18
591.0,20.03
590.0,20.32
589.0,20.42
588.0,20.34
587.0,20.24
586.0,20.03
585.0,20.09
584.0,20.26
583.0,20.19
582.0,20.20
581.0,19.88
580.0,19.71
579.0,19.71
578.0,20.00
577.0,19.95
576.0,19.83
575.0,19.55
574.0,19.62
573.0,19.91
572.0,19.91
571.0,19.84
570.0,19.58
569.0,19.42
568.0,19.54
567.0,19.58
566.0,19.72
565.0,19.53
564.0,19.41
563.0,19.30
562.0,19.44
561.0,19.22
560.0,19.13
559.0,19.04
558.0,19.18
557.0,19.27
556.0,19.17
555.0,19.11
554.0,19.03
553.0,19.04
552.0,19.02
551.0,18.98
550.0,18.99
549.0,18.83
548.0,18.70
547.0,18.59
546.0,18.67
545.0,18.76
544.0,18.81
543.0,18.59
542.0,18.47
541.0,18.54
540.0,18.66
539.0,18.65
538.0,18.51
537.0,18.21
536.0,18.36
535.0,18.25
534.0,18.32
533.0,18.15
532.0,18.06
531.0,17.99
530.0,18.15
529.0,18.23
528.0,18.17
527.0,17.93
526.0,17.89
525.0,17.91
524.0,17.89
523.0,18.01
522.0,17.79
521.0,17.65
520.0,17.70
519.0,17.59
518.0,17.81
517.0,17.77
516.0,17.68
515.0,17.48
514.0,17.52
513.0,17.60
512.0,17.71
511.0,17.48
510.0,17.36
509.0,17.11
508.0,17.12
507.0,17.14
506.0,17.30
505.0,17.28
504.0,17.09
503.0,16.80
502.0,16.72
501.0,16.80
500.0,17.01
499.0,17.02
498.0,16.54
497.0,16.45
496.0,16.38
495.0,16.40
494.0,16.42
493.0,16.27
492.0,16.29
491.0,16.30
490.0,16.06
489.0,15.86
488.0,15.98
487.0,15.85
486.0,15.78
485.0,15.68
484.0,15.54
483.0,15.44
482.0,15.61
481.0,15.20
480.0,15.16
479.0,15.03
478.0,15.02
477.0,15.01
476.0,15.14
475.0,14.95
474.0,14.71
473.0,14.74
472.0,14.46
471.0,14.40
470.0,14.41
469.0,14.39
468.0,14.32
467.0,14.12
466.0,13.94
465.0,13.84
464.0,13.91
463.0,13.84
462.0,13.65
461.0,13.58
460.0,13.31
459.0,13.14
458.0,13.05
457.0,13.09
456.0,13.11
455.0,12.88
454.0,12.76
453.0,12.47
452.0,12.37
451.0,12.33
450.0,12.34
449.0,12.13
448.0,11.94
447.0,11.62
446.0,11.46
445.0,11.41
444.0,11.33
443.0,11.37
442.0,11.14
441.0,10.72
440.0,10.50
439.0,10.38
438.0,10.48
437.0,10.33
436.0,10.25
435.0,9.87
434.0,9.95
433.0,9.46
432.0,9.35
431.0,9.27
430.0,9.34
429.0,9.25
428.0,9.01
427.0,8.61
426.0,8.53
425.0,8.50
424.0,8.39
423.0,8.29
422.0,8.02
421.0,7.58
420.0,7.47
419.0,7.55
418.0,7.49
417.0,7.34
416.0,7.17
415.0,6.90
414.0,6.50
413.0,6.56
412.0,6.53
411.0,6.37
410.0,6.26
409.0,5.97
408.0,5.73
407.0,5.61
406.0,5.51
405.0,5.40
404.0,5.45
403.0,5.27
402.0,5.07
401.0,4.76
400.0,4.64
399.0,4.51
398.0,4.50
397.0,4.44
396.0,4.26
395.0,4.06
394.0,3.87
393.0,3.85
392.0,3.87
391.0,3.76
390.0,3.60
389.0,3.28
388.0,3.08
387.0,2.99
386.0,3.13
385.0,3.06
384.0,2.77
383.0,2.46
382.0,2.41
381.0,2.49
380.0,2.40
379.0,2.22
378.0,1.72
377.0,0.96
376.0,0.91
375.0,1.09
374.0,1.11
373.0,1.11
372.0,0.71
371.0,1.04
370.0,1.19
369.0,1.13
368.0,0.87
367.0,0.75
366.0,0.57
365.0,0.84
364.0,0.94
363.0,0.80
362.0,0.59
361.0,0.52
360.0,0.61
359.0,0.54
358.0,0.47
357.0,0.74
356.0,0.74
355.0,0.20
354.0,0.07
353.0,0.17
352.0,0.30
351.0,0.62
350.0,0.64
349.0,0.37
348.0,0.18
347.0,0.11
346.0,0.18
345.0,0.29
344.0,0.45
343.0,0.40
342.0,0.08
341.0,-0.01
340.0,0.10
339.0,0.31
338.0,0.50
337.0,0.53
336.0,0.18
335.0,0.03
334.0,0.31
333.0,0.08
332.0,0.06
331.0,0.29
330.0,0.10
329.0,0.08
328.0,-0.06
327.0,-0.41
326.0,-0.53
325.0,-0.32
324.0,0.04
323.0,0.25
322.0,-0.08
321.0,-0.73
320.0,-0.22
319.0,0.13
318.0,-0.22
317.0,-0.08
316.0,0.05
315.0,0.01
314.0,-0.21
313.0,-0.36
312.0,-0.37
311.0,-0.30
310.0,-0.13
309.0,0.08
308.0,0.22
307.0,0.01
306.0,-0.26
305.0,-0.35
304.0,-0.34
303.0,-0.13
302.0,0.05
301.0,0.07
300.0,-0.06
299.0,-0.27
298.0,-0.35
297.0,-0.28
296.0,-0.15
295.0,0.07
294.0,0.14
293.0,0.01
292.0,-0.13
291.0,-0.38
290.0,-0.41
289.0,-0.20
288.0,0.05
287.0,0.13
286.0,0.03
285.0,-0.13
284.0,-0.26
283.0,-0.30
282.0,-0.18
281.0,-0.02
280.0,0.04
279.0,0.08
278.0,-0.17
277.0,-0.31
276.0,-0.31
275.0,-0.14
274.0,-0.01
273.0,0.15
272.0,0.10
271.0,-0.27
270.0,-0.33
269.0,-0.22
268.0,0.01
267.0,0.05
266.0,0.11
265.0,-0.12
264.0,-0.31
263.0,-0.28
262.0,-0.14
261.0,0.02
260.0,0.11
259.0,0.05
258.0,-0.30
257.0,-0.46
256.0,-0.34
255.0,-0.20
254.0,-0.02
253.0,-0.10
252.0,-0.38
251.0,-0.45
250.0,-0.46
249.0,-0.33
248.0,-0.12
247.0,-0.14
246.0,-0.25
245.0,-0.55
244.0,-0.62
243.0,-0.41
242.0,-0.15
241.0,-0.11
240.0,-0.21
239.0,-0.55
238.0,-0.52
237.0,-0.46
236.0,-0.22
235.0,-0.03
234.0,-0.03
233.0,-0.32
232.0,-0.41
231.0,-0.45
230.0,-0.27
229.0,0.05
228.0,-0.05
227.0,-0.10
226.0,-0.41
225.0,-0.33
224.0,-0.25
223.0,-0.05
222.0,0.07
221.0,0.05
220.0,-0.09
219.0,-0.19
218.0,-0.21
217.0,-0.03
216.0,0.18
215.0,0.20
214.0,0.04
213.0,-0.14
212.0,-0.19
211.0,-0.03
210.0,0.21
209.0,0.32
208.0,0.25
207.0,0.16
206.0,-0.08
205.0,-0.12
204.0,0.25
203.0,0.34
202.0,0.59
201.0,0.43
200.0,0.14
