Created as New Dataset,
nm,%T
800.0,59.01
799.0,57.81
798.0,58.54
797.0,57.19
796.0,57.28
795.0,57.34
794.0,57.27
793.0,57.57
792.0,58.43
791.0,57.92
790.0,58.09
789.0,57.69
788.0,57.29
787.0,55.33
786.0,57.32
785.0,55.91
784.0,58.34
783.0,58.58
782.0,59.03
781.0,57.13
780.0,56.80
779.0,56.78
778.0,57.61
777.0,57.36
776.0,56.98
775.0,57.24
774.0,56.90
773.0,57.71
772.0,58.85
771.0,56.51
770.0,56.51
769.0,57.29
768.0,58.18
767.0,57.47
766.0,57.02
765.0,56.41
764.0,56.85
763.0,57.08
762.0,57.69
761.0,56.82
760.0,56.70
759.0,56.15
758.0,56.35
757.0,56.16
756.0,56.71
755.0,55.69
754.0,57.29
753.0,56.35
752.0,56.90
751.0,56.30
750.0,56.09
749.0,56.36
748.0,55.71
747.0,55.74
746.0,55.82
745.0,55.94
744.0,57.23
743.0,55.51
742.0,55.08
741.0,55.13
740.0,54.97
739.0,54.55
738.0,55.18
737.0,56.21
736.0,55.40
735.0,55.75
734.0,55.66
733.0,55.95
732.0,56.48
731.0,56.49
730.0,55.94
729.0,55.95
728.0,56.41
727.0,57.08
726.0,55.81
725.0,55.14
724.0,54.87
723.0,55.89
722.0,55.97
721.0,55.34
720.0,54.88
719.0,55.18
718.0,55.09
717.0,55.89
716.0,55.51
715.0,55.05
714.0,55.51
713.0,55.45
712.0,55.38
711.0,54.92
710.0,55.06
709.0,55.19
708.0,54.96
707.0,55.17
706.0,55.51
705.0,55.25
704.0,54.98
703.0,55.46
702.0,55.22
701.0,54.83
700.0,55.17
699.0,54.99
698.0,54.80
697.0,54.77
696.0,54.95
695.0,54.93
694.0,55.04
693.0,54.84
692.0,54.18
691.0,54.45
690.0,54.63
689.0,54.61
688.0,54.65
687.0,54.82
686.0,54.96
685.0,54.68
684.0,54.20
683.0,54.30
682.0,54.60
681.0,54.23
680.0,54.16
679.0,54.11
678.0,54.27
677.0,54.52
676.0,54.14
675.0,53.97
674.0,54.09
673.0,53.83
672.0,54.08
671.0,54.29
670.0,54.12
669.0,53.91
668.0,53.56
667.0,53.73
666.0,53.84
665.0,53.78
664.0,53.66
663.0,53.36
662.0,53.21
661.0,53.38
660.0,53.69
659.0,53.50
658.0,53.13
657.0,52.78
656.0,52.61
655.0,53.17
654.0,53.34
653.0,53.15
652.0,52.87
651.0,52.69
650.0,52.91
649.0,53.11
648.0,53.25
647.0,52.77
646.0,52.27
645.0,52.69
644.0,52.60
643.0,52.45
642.0,52.57
641.0,52.27
640.0,52.35
639.0,52.59
638.0,52.59
637.0,52.51
636.0,52.04
635.0,51.95
634.0,52.12
633.0,51.87
632.0,51.84
631.0,52.04
630.0,52.00
629.0,51.74
628.0,51.69
627.0,51.89
626.0,51.84
625.0,51.82
624.0,51.51
623.0,51.31
622.0,51.47
621.0,51.15
620.0,51.34
619.0,51.55
618.0,51.35
617.0,51.23
616.0,51.10
615.0,51.23
614.0,51.36
613.0,51.42
612.0,50.97
611.0,50.82
610.0,50.86
609.0,51.12
608.0,51.20
607.0,50.83
606.0,50.66
605.0,50.64
604.0,50.29
603.0,50.14
602.0,50.36
601.0,50.34
600.0,50.42
599.0,50.31
598.0,50.23
597.0,50.04
596.0,49.91
595.0,49.75
594.0,49.96
593.0,50.26
592.0,50.10
591.0,49.73
590.0,49.25
589.0,49.31
588.0,49.76
587.0,49.95
586.0,49.92
585.0,49.61
584.0,49.39
583.0,49.32
582.0,49.27
581.0,49.13
580.0,49.19
579.0,49.12
578.0,48.88
577.0,49.07
576.0,49.19
575.0,49.00
574.0,48.98
573.0,49.04
572.0,48.95
571.0,48.77
570.0,48.56
569.0,48.51
568.0,48.83
567.0,48.48
566.0,48.30
565.0,47.90
564.0,47.91
563.0,48.27
562.0,48.30
561.0,47.87
560.0,47.84
559.0,48.05
558.0,47.87
557.0,47.44
556.0,47.45
555.0,47.48
554.0,47.48
553.0,47.65
552.0,47.61
551.0,47.23
550.0,47.00
549.0,47.04
548.0,47.38
547.0,47.43
546.0,47.02
545.0,46.67
544.0,46.73
543.0,46.91
542.0,47.00
541.0,46.85
540.0,46.60
539.0,46.44
538.0,46.40
537.0,46.65
536.0,46.58
535.0,46.22
534.0,46.05
533.0,46.03
532.0,45.96
531.0,45.91
530.0,46.00
529.0,45.68
528.0,45.57
527.0,45.50
526.0,45.62
525.0,45.71
524.0,45.38
523.0,45.47
522.0,44.85
521.0,45.16
520.0,45.23
519.0,45.11
518.0,44.92
517.0,44.31
516.0,44.58
515.0,44.67
514.0,44.89
513.0,44.85
512.0,44.80
511.0,44.04
510.0,43.80
509.0,43.93
508.0,44.27
507.0,44.07
506.0,43.67
505.0,43.28
504.0,43.59
503.0,43.49
502.0,43.71
501.0,43.16
500.0,43.11
499.0,42.76
498.0,42.66
497.0,42.78
496.0,42.77
495.0,42.74
494.0,41.99
493.0,41.77
492.0,41.66
491.0,41.91
490.0,41.21
489.0,41.69
488.0,41.25
487.0,41.60
486.0,40.74
485.0,40.67
484.0,40.31
483.0,40.40
482.0,40.13
481.0,39.74
480.0,39.58
479.0,39.42
478.0,39.39
477.0,39.49
476.0,39.43
475.0,38.89
474.0,38.57
473.0,38.15
472.0,38.37
471.0,38.25
470.0,37.74
469.0,37.38
468.0,37.18
467.0,37.22
466.0,37.17
465.0,36.68
464.0,36.45
463.0,36.04
462.0,35.61
461.0,35.85
460.0,35.84
459.0,34.92
458.0,34.64
457.0,34.22
456.0,34.28
455.0,34.03
454.0,33.85
453.0,33.28
452.0,32.55
451.0,32.34
450.0,32.23
449.0,32.64
448.0,32.11
447.0,31.60
446.0,31.08
445.0,30.50
444.0,30.45
443.0,30.03
442.0,29.93
441.0,29.40
440.0,29.07
439.0,28.81
438.0,28.57
437.0,28.15
436.0,27.68
435.0,27.17
434.0,27.06
433.0,26.45
432.0,26.41
431.0,25.74
430.0,25.31
429.0,24.96
428.0,24.40
427.0,24.14
426.0,23.93
425.0,23.45
424.0,22.78
423.0,22.42
422.0,22.10
421.0,21.74
420.0,21.68
419.0,21.21
418.0,20.76
417.0,20.17
416.0,19.76
415.0,19.35
414.0,19.30
413.0,19.01
412.0,18.36
411.0,17.50
410.0,17.17
409.0,17.27
408.0,16.78
407.0,16.49
406.0,15.82
405.0,15.36
404.0,15.38
403.0,15.10
402.0,14.53
401.0,14.25
400.0,13.76
399.0,13.45
398.0,13.36
397.0,12.93
396.0,12.58
395.0,12.00
394.0,11.81
393.0,11.53
392.0,11.23
391.0,10.76
390.0,10.37
389.0,10.03
388.0,9.71
387.0,9.38
386.0,9.22
385.0,8.86
384.0,8.28
383.0,7.66
382.0,7.46
381.0,7.28
380.0,7.09
379.0,6.39
378.0,5.72
377.0,5.39
376.0,4.94
375.0,4.76
374.0,4.53
373.0,4.43
372.0,4.11
371.0,3.92
370.0,3.42
369.0,3.21
368.0,3.09
367.0,3.02
366.0,2.77
365.0,2.67
364.0,2.62
363.0,2.35
362.0,2.30
361.0,2.12
360.0,2.29
359.0,2.42
358.0,1.85
357.0,1.51
356.0,1.75
355.0,1.80
354.0,1.71
353.0,1.41
352.0,1.17
351.0,1.11
350.0,1.28
349.0,1.25
348.0,1.14
347.0,1.31
346.0,1.02
345.0,0.65
344.0,0.96
343.0,1.28
342.0,1.05
341.0,0.72
340.0,0.62
339.0,0.43
338.0,0.51
337.0,0.65
336.0,0.66
335.0,0.57
334.0,0.56
333.0,0.58
332.0,0.34
331.0,0.60
330.0,0.51
329.0,-0.08
328.0,0.07
327.0,0.01
326.0,0.22
325.0,0.65
324.0,0.70
323.0,0.08
322.0,-0.10
321.0,-0.10
320.0,-0.17
319.0,0.06
318.0,0.16
317.0,0.03
316.0,-0.14
315.0,-0.28
314.0,-0.20
313.0,0.08
312.0,0.11
311.0,0.01
310.0,-0.20
309.0,-0.27
308.0,-0.15
307.0,-0.04
306.0,0.07
305.0,-0.08
304.0,-0.25
303.0,-0.25
302.0,-0.07
301.0,0.04
300.0,-0.04
299.0,-0.25
298.0,-0.33
297.0,-0.13
296.0,0.09
295.0,0.05
294.0,-0.13
293.0,-0.31
292.0,-0.20
291.0,-0.00
290.0,0.05
289.0,-0.09
288.0,-0.33
287.0,-0.28
286.0,-0.08
285.0,0.11
284.0,0.00
283.0,-0.18
282.0,-0.27
281.0,-0.24
280.0,0.00
279.0,0.07
278.0,-0.00
277.0,-0.15
276.0,-0.34
275.0,-0.19
274.0,-0.03
273.0,0.09
272.0,0.06
271.0,-0.17
270.0,-0.30
269.0,-0.19
268.0,0.05
267.0,0.07
266.0,-0.05
265.0,-0.24
264.0,-0.31
263.0,-0.05
262.0,0.06
261.0,0.05
260.0,-0.16
259.0,-0.27
258.0,-0.25
257.0,-0.05
256.0,0.08
255.0,-0.17
254.0,-0.46
253.0,-0.38
252.0,-0.35
251.0,-0.00
250.0,-0.15
249.0,-0.44
248.0,-0.55
247.0,-0.44
246.0,-0.24
245.0,-0.13
244.0,-0.19
243.0,-0.41
242.0,-0.54
241.0,-0.45
240.0,-0.25
239.0,-0.10
238.0,-0.22
237.0,-0.36
236.0,-0.49
235.0,-0.27
234.0,-0.03
233.0,-0.06
232.0,-0.30
231.0,-0.38
230.0,-0.33
229.0,-0.01
228.0,0.09
227.0,-0.09
226.0,-0.32
225.0,-0.36
224.0,-0.14
223.0,0.09
222.0,0.03
221.0,-0.16
220.0,-0.36
219.0,-0.14
218.0,0.16
217.0,0.18
216.0,0.07
215.0,-0.20
214.0,-0.11
213.0,0.06
212.0,0.19
211.0,0.18
210.0,-0.15
209.0,-0.14
208.0,0.15
207.0,0.37
206.0,0.24
205.0,-0.00
204.0,-0.00
203.0,0.43
202.0,0.65
201.0,0.37
200.0,0.28
