Created as New Dataset,
nm,%T
800.0,71.63
799.0,69.07
798.0,68.24
797.0,69.75
796.0,67.69
795.0,68.47
794.0,69.66
793.0,69.45
792.0,68.50
791.0,68.53
790.0,69.65
789.0,68.72
788.0,71.64
787.0,68.34
786.0,68.95
785.0,68.84
784.0,67.71
783.0,69.30
782.0,70.57
781.0,69.01
780.0,68.16
779.0,69.96
778.0,68.34
777.0,68.36
776.0,69.12
775.0,67.25
774.0,67.30
773.0,68.69
772.0,70.48
771.0,69.03
770.0,68.76
769.0,69.12
768.0,69.38
767.0,69.57
766.0,68.70
765.0,67.99
764.0,68.31
763.0,67.90
762.0,69.04
761.0,68.21
760.0,68.64
759.0,67.89
758.0,68.38
757.0,69.09
756.0,68.76
755.0,67.49
754.0,67.45
753.0,67.57
752.0,67.34
751.0,68.46
750.0,67.50
749.0,67.14
748.0,66.89
747.0,67.96
746.0,67.86
745.0,67.49
744.0,68.04
743.0,67.15
742.0,66.70
741.0,66.15
740.0,66.46
739.0,64.93
738.0,65.84
737.0,65.62
736.0,66.28
735.0,67.04
734.0,67.31
733.0,67.33
732.0,67.56
731.0,67.34
730.0,67.01
729.0,66.73
728.0,66.82
727.0,67.77
726.0,66.90
725.0,66.29
724.0,66.27
723.0,66.95
722.0,66.86
721.0,66.74
720.0,66.71
719.0,66.52
718.0,65.67
717.0,66.58
716.0,66.90
715.0,67.04
714.0,66.77
713.0,66.63
712.0,65.99
711.0,66.51
710.0,66.63
709.0,66.58
708.0,65.61
707.0,66.07
706.0,66.27
705.0,66.18
704.0,66.39
703.0,66.86
702.0,66.54
701.0,66.07
700.0,65.87
699.0,65.85
698.0,65.60
697.0,65.91
696.0,66.20
695.0,65.73
694.0,65.94
693.0,66.29
692.0,65.98
691.0,66.47
690.0,66.04
689.0,66.42
688.0,66.50
687.0,65.70
686.0,65.53
685.0,65.43
684.0,64.99
683.0,65.01
682.0,65.36
681.0,64.94
680.0,64.84
679.0,65.29
678.0,65.08
677.0,64.77
676.0,64.28
675.0,64.30
674.0,64.63
673.0,64.51
672.0,64.74
671.0,65.09
670.0,64.54
669.0,64.29
668.0,64.36
667.0,64.66
666.0,65.08
665.0,64.64
664.0,64.18
663.0,63.80
662.0,63.71
661.0,64.16
660.0,64.13
659.0,63.78
658.0,63.43
657.0,63.73
656.0,63.85
655.0,63.77
654.0,63.84
653.0,63.48
652.0,63.12
651.0,63.40
650.0,63.77
649.0,63.45
648.0,63.27
647.0,63.23
646.0,63.01
645.0,63.05
644.0,62.98
643.0,62.35
642.0,62.44
641.0,62.95
640.0,62.84
639.0,62.45
638.0,62.37
637.0,62.89
636.0,62.88
635.0,62.53
634.0,62.48
633.0,62.40
632.0,62.37
631.0,62.51
630.0,62.34
629.0,62.14
628.0,61.97
627.0,61.67
626.0,61.74
625.0,61.83
624.0,61.60
623.0,61.36
622.0,61.47
621.0,61.42
620.0,61.61
619.0,61.49
618.0,61.36
617.0,61.49
616.0,61.19
615.0,60.91
614.0,61.02
613.0,60.84
612.0,60.66
611.0,60.82
610.0,60.79
609.0,60.43
608.0,60.51
607.0,60.55
606.0,60.15
605.0,60.06
604.0,59.90
603.0,59.93
602.0,60.23
601.0,60.10
600.0,60.02
599.0,59.87
598.0,59.67
597.0,59.50
596.0,59.50
595.0,59.38
594.0,59.22
593.0,59.12
592.0,59.52
591.0,59.06
590.0,59.02
589.0,58.88
588.0,58.62
587.0,59.09
586.0,59.12
585.0,58.77
584.0,58.68
583.0,58.38
582.0,58.50
581.0,58.31
580.0,57.86
579.0,57.70
578.0,57.98
577.0,58.12
576.0,58.05
575.0,57.81
574.0,57.26
573.0,57.37
572.0,57.30
571.0,57.27
570.0,57.08
569.0,56.75
568.0,56.89
567.0,56.77
566.0,56.97
565.0,56.59
564.0,56.61
563.0,56.35
562.0,56.81
561.0,56.45
560.0,56.40
559.0,56.41
558.0,56.04
557.0,55.81
556.0,55.19
555.0,55.53
554.0,55.46
553.0,55.82
552.0,55.54
551.0,55.13
550.0,55.12
549.0,54.77
548.0,54.92
547.0,55.09
546.0,54.74
545.0,54.47
544.0,54.39
543.0,54.38
542.0,54.47
541.0,54.12
540.0,54.00
539.0,54.02
538.0,53.90
537.0,53.67
536.0,53.80
535.0,53.36
534.0,53.01
533.0,53.25
532.0,53.11
531.0,52.69
530.0,52.63
529.0,52.64
528.0,52.63
527.0,52.17
526.0,52.10
525.0,52.15
524.0,51.68
523.0,51.87
522.0,51.79
521.0,51.42
520.0,51.16
519.0,51.14
518.0,51.03
517.0,50.68
516.0,50.72
515.0,50.39
514.0,50.39
513.0,50.57
512.0,50.16
511.0,49.83
510.0,49.70
509.0,49.54
508.0,49.63
507.0,49.47
506.0,48.98
505.0,48.40
504.0,48.55
503.0,48.87
502.0,48.20
501.0,47.98
500.0,47.73
499.0,47.88
498.0,47.59
497.0,47.27
496.0,47.04
495.0,46.32
494.0,46.43
493.0,46.16
492.0,46.29
491.0,45.69
490.0,44.88
489.0,45.16
488.0,44.78
487.0,44.47
486.0,43.71
485.0,43.55
484.0,43.32
483.0,43.07
482.0,42.84
481.0,42.04
480.0,41.59
479.0,41.20
478.0,41.31
477.0,41.05
476.0,40.72
475.0,40.19
474.0,39.62
473.0,39.51
472.0,39.06
471.0,38.55
470.0,38.13
469.0,37.79
468.0,37.64
467.0,37.11
466.0,36.64
465.0,35.89
464.0,35.79
463.0,35.26
462.0,34.76
461.0,34.29
460.0,33.86
459.0,33.22
458.0,32.94
457.0,32.46
456.0,32.22
455.0,31.41
454.0,30.77
453.0,30.68
452.0,30.04
451.0,29.72
450.0,29.08
449.0,28.68
448.0,28.16
447.0,27.60
446.0,27.22
445.0,26.53
444.0,25.99
443.0,25.55
442.0,25.36
441.0,24.33
440.0,23.96
439.0,23.33
438.0,22.66
437.0,22.22
436.0,21.82
435.0,21.31
434.0,20.97
433.0,20.15
432.0,19.79
431.0,19.39
430.0,18.90
429.0,18.48
428.0,17.90
427.0,17.17
426.0,16.75
425.0,16.17
424.0,15.94
423.0,15.59
422.0,14.81
421.0,14.19
420.0,14.12
419.0,13.60
418.0,13.19
417.0,12.68
416.0,12.18
415.0,11.73
414.0,11.37
413.0,11.08
412.0,10.87
411.0,10.33
410.0,9.91
409.0,9.65
408.0,9.29
407.0,9.00
406.0,8.54
405.0,8.26
404.0,7.94
403.0,7.67
402.0,7.44
401.0,7.20
400.0,6.70
399.0,6.35
398.0,6.14
397.0,6.04
396.0,5.87
395.0,5.69
394.0,5.19
393.0,4.85
392.0,4.66
391.0,4.67
390.0,4.48
389.0,4.00
388.0,3.68
387.0,3.50
386.0,3.37
385.0,3.33
384.0,3.14
383.0,2.71
382.0,2.39
381.0,2.24
380.0,2.11
379.0,1.66
378.0,1.32
377.0,1.33
376.0,1.19
375.0,1.27
374.0,0.95
373.0,0.78
372.0,0.34
371.0,0.42
370.0,0.47
369.0,0.57
368.0,0.63
367.0,0.30
366.0,0.24
365.0,0.47
364.0,0.69
363.0,0.65
362.0,0.53
361.0,0.48
360.0,0.40
359.0,0.37
358.0,0.32
357.0,0.31
356.0,0.42
355.0,0.48
354.0,0.59
353.0,0.56
352.0,0.29
351.0,0.07
350.0,0.07
349.0,0.07
348.0,0.04
347.0,0.15
346.0,0.02
345.0,0.10
344.0,-0.05
343.0,-0.04
342.0,0.30
341.0,0.38
340.0,0.31
339.0,0.23
338.0,-0.19
337.0,-0.14
336.0,0.44
335.0,0.30
334.0,0.19
333.0,0.17
332.0,0.08
331.0,0.27
330.0,0.52
329.0,0.48
328.0,0.18
327.0,0.20
326.0,-0.00
325.0,0.39
324.0,0.44
323.0,0.11
322.0,0.26
321.0,0.15
320.0,0.06
319.0,0.12
318.0,0.04
317.0,-0.22
316.0,-0.35
315.0,-0.13
314.0,0.10
313.0,-0.04
312.0,-0.22
311.0,-0.30
310.0,-0.15
309.0,0.11
308.0,0.02
307.0,-0.24
306.0,-0.27
305.0,-0.04
304.0,0.11
303.0,0.00
302.0,-0.20
301.0,-0.15
300.0,0.05
299.0,0.07
298.0,-0.02
297.0,-0.19
296.0,-0.21
295.0,-0.05
294.0,0.11
293.0,-0.02
292.0,-0.19
291.0,-0.23
290.0,-0.15
289.0,0.04
288.0,0.07
287.0,-0.04
286.0,-0.21
285.0,-0.18
284.0,0.03
283.0,0.17
282.0,-0.03
281.0,-0.28
280.0,-0.26
279.0,-0.10
278.0,0.09
277.0,-0.02
276.0,-0.24
275.0,-0.27
274.0,-0.15
273.0,0.09
272.0,0.11
271.0,-0.14
270.0,-0.36
269.0,-0.22
268.0,0.06
267.0,0.23
266.0,0.06
265.0,-0.16
264.0,-0.26
263.0,-0.05
262.0,0.20
261.0,0.13
260.0,-0.23
259.0,-0.32
258.0,-0.19
257.0,0.10
256.0,0.04
255.0,-0.20
254.0,-0.38
253.0,-0.27
252.0,-0.14
251.0,-0.11
250.0,-0.38
249.0,-0.43
248.0,-0.41
247.0,-0.11
246.0,-0.01
245.0,-0.24
244.0,-0.38
243.0,-0.41
242.0,-0.26
241.0,-0.14
240.0,-0.15
239.0,-0.37
238.0,-0.48
237.0,-0.45
236.0,-0.24
235.0,-0.02
234.0,-0.10
233.0,-0.39
232.0,-0.38
231.0,-0.17
230.0,-0.02
229.0,0.07
228.0,-0.13
227.0,-0.27
226.0,-0.24
225.0,0.07
224.0,0.18
223.0,-0.03
222.0,-0.22
221.0,-0.10
220.0,0.02
219.0,0.24
218.0,-0.04
217.0,-0.18
216.0,-0.12
215.0,0.03
214.0,0.24
213.0,0.11
212.0,-0.13
211.0,0.02
210.0,0.36
209.0,0.40
208.0,0.27
207.0,-0.09
206.0,0.01
205.0,0.48
204.0,0.59
203.0,0.17
202.0,0.25
201.0,0.24
200.0,0.61
