PE FL                   SPECTRUM    ASCII       PEDS        1.60        
  -1
01#197.SP
02/03/17
06:13:37.00
02/03/17
06:16:15.00


590.000000
1









LS55
310.00
5.00
5.00
SCAN
1
20
100
100
0
100
0
1
0
1
7
ON
523 310 
1 0 0
#HDR
-1
-1
#GR
NM

0.00002384185791015625
0.0
340.000000
0.500000
501
8
0.312916
-0.000287
#DATA
340.000000	0.000000  
340.500000	0.000000  
341.000000	0.000000  
341.500000	0.000000  
342.000000	0.000000  
342.500000	0.000000  
343.000000	0.000000  
343.500000	0.000000  
344.000000	0.000000  
344.500000	0.000000  
345.000000	0.000000  
345.500000	0.000000  
346.000000	0.000000  
346.500000	0.000000  
347.000000	0.000000  
347.500000	0.000000  
348.000000	0.000000  
348.500000	0.000000  
349.000000	0.000000  
349.500000	0.000000  
350.000000	0.000000  
350.500000	0.000000  
351.000000	0.000000  
351.500000	0.000000  
352.000000	0.000000  
352.500000	0.000000  
353.000000	0.000000  
353.500000	0.000000  
354.000000	0.000000  
354.500000	0.000000  
355.000000	0.000000  
355.500000	0.000000  
356.000000	0.000000  
356.500000	0.000000  
357.000000	0.000000  
357.500000	0.000000  
358.000000	0.000000  
358.500000	0.000000  
359.000000	0.000000  
359.500000	0.000000  
360.000000	0.000000  
360.500000	0.000000  
361.000000	0.000000  
361.500000	0.000000  
362.000000	0.000000  
362.500000	0.000000  
363.000000	0.000000  
363.500000	0.000000  
364.000000	0.000000  
364.500000	0.000000  
365.000000	0.000000  
365.500000	0.000000  
366.000000	0.000000  
366.500000	0.000000  
367.000000	0.000000  
367.500000	0.000000  
368.000000	0.000000  
368.500000	0.000000  
369.000000	0.000000  
369.500000	0.000000  
370.000000	0.000000  
370.500000	0.000000  
371.000000	0.000000  
371.500000	0.000000  
372.000000	0.000000  
372.500000	0.000000  
373.000000	0.000000  
373.500000	0.000000  
374.000000	0.000000  
374.500000	0.000000  
375.000000	0.000000  
375.500000	0.000000  
376.000000	0.000000  
376.500000	0.000000  
377.000000	0.000000  
377.500000	0.000000  
378.000000	0.000000  
378.500000	0.000000  
379.000000	0.000000  
379.500000	0.000000  
380.000000	0.000000  
380.500000	0.000000  
381.000000	0.000000  
381.500000	0.000000  
382.000000	0.000000  
382.500000	0.000000  
383.000000	0.000000  
383.500000	0.000000  
384.000000	0.000000  
384.500000	0.000000  
385.000000	0.000000  
385.500000	0.000000  
386.000000	0.000000  
386.500000	0.000000  
387.000000	0.000000  
387.500000	0.000000  
388.000000	0.000000  
388.500000	0.000000  
389.000000	0.000000  
389.500000	0.000000  
390.000000	0.000000  
390.500000	0.000000  
391.000000	0.000000  
391.500000	0.000000  
392.000000	0.000000  
392.500000	0.000000  
393.000000	0.000000  
393.500000	0.000000  
394.000000	0.000000  
394.500000	0.000000  
395.000000	0.000000  
395.500000	0.000000  
396.000000	0.000000  
396.500000	0.000000  
397.000000	0.000000  
397.500000	0.000000  
398.000000	0.000000  
398.500000	0.000000  
399.000000	0.000000  
399.500000	0.000000  
400.000000	0.000000  
400.500000	0.000000  
401.000000	0.000000  
401.500000	0.000000  
402.000000	0.000000  
402.500000	0.000000  
403.000000	0.000000  
403.500000	0.000000  
404.000000	0.000000  
404.500000	0.000000  
405.000000	-0.000060 
405.500000	-0.000053 
406.000000	0.000409  
406.500000	0.000984  
407.000000	0.001151  
407.500000	0.000613  
408.000000	0.000075  
408.500000	-0.000121 
409.000000	0.000000  
409.500000	0.000000  
410.000000	0.000000  
410.500000	0.000000  
411.000000	0.000000  
411.500000	0.000000  
412.000000	0.000000  
412.500000	0.000000  
413.000000	0.000000  
413.500000	0.000000  
414.000000	0.000000  
414.500000	0.000000  
415.000000	0.000000  
415.500000	0.000000  
416.000000	0.000000  
416.500000	0.000000  
417.000000	-0.000060 
417.500000	-0.000053 
418.000000	0.000409  
418.500000	0.000984  
419.000000	0.001151  
419.500000	0.000613  
420.000000	0.000075  
420.500000	-0.000121 
421.000000	-0.000060 
421.500000	-0.000053 
422.000000	0.000409  
422.500000	0.000984  
423.000000	0.001151  
423.500000	0.000613  
424.000000	-0.000045 
424.500000	-0.000287 
425.000000	0.000886  
425.500000	0.002242  
426.000000	0.002681  
426.500000	0.001446  
427.000000	0.000568  
427.500000	0.000628  
428.000000	0.001560  
428.500000	0.001598  
429.000000	0.001166  
429.500000	0.000439  
430.000000	0.000484  
430.500000	0.000742  
431.000000	0.000984  
431.500000	0.001318  
432.000000	0.001856  
432.500000	0.004189  
433.000000	0.005757  
433.500000	0.005818  
434.000000	0.003249  
434.500000	0.001500  
435.000000	0.000772  
435.500000	0.001371  
436.000000	0.002000  
436.500000	0.003030  
437.000000	0.004037  
437.500000	0.003696  
438.000000	0.003742  
438.500000	0.004015  
439.000000	0.004537  
439.500000	0.004356  
440.000000	0.003696  
440.500000	0.003378  
441.000000	0.004598  
441.500000	0.008416  
442.000000	0.014840  
442.500000	0.021204  
443.000000	0.023803  
443.500000	0.021901  
444.000000	0.019409  
444.500000	0.020045  
445.000000	0.023136  
445.500000	0.025272  
446.000000	0.024234  
446.500000	0.023303  
447.000000	0.023310  
447.500000	0.024037  
448.000000	0.027469  
448.500000	0.034159  
449.000000	0.041219  
449.500000	0.043090  
450.000000	0.040174  
450.500000	0.035272  
451.000000	0.038484  
451.500000	0.049560  
452.000000	0.060893  
452.500000	0.062969  
453.000000	0.055499  
453.500000	0.056015  
454.000000	0.065833  
454.500000	0.078462  
455.000000	0.082159  
455.500000	0.083128  
456.000000	0.079613  
456.500000	0.075257  
457.000000	0.069090  
457.500000	0.071999  
458.000000	0.086749  
458.500000	0.106659  
459.000000	0.114924  
459.500000	0.107545  
460.000000	0.098022  
460.500000	0.101537  
461.000000	0.114310  
461.500000	0.122325  
462.000000	0.125734  
462.500000	0.126659  
463.000000	0.131136  
463.500000	0.131295  
464.000000	0.132765  
464.500000	0.133643  
465.000000	0.133992  
465.500000	0.136939  
466.000000	0.144909  
466.500000	0.156696  
467.000000	0.164401  
467.500000	0.168500  
468.000000	0.162734  
468.500000	0.159393  
469.000000	0.157318  
469.500000	0.161045  
470.000000	0.158780  
470.500000	0.160371  
471.000000	0.170704  
471.500000	0.190666  
472.000000	0.197651  
472.500000	0.190159  
473.000000	0.180242  
473.500000	0.182204  
474.000000	0.194553  
474.500000	0.206272  
475.000000	0.213075  
475.500000	0.213530  
476.000000	0.215719  
476.500000	0.219492  
477.000000	0.223507  
477.500000	0.224492  
478.000000	0.221992  
478.500000	0.223022  
479.000000	0.229356  
479.500000	0.243280  
480.000000	0.250477  
480.500000	0.250310  
481.000000	0.238265  
481.500000	0.232560  
482.000000	0.232106  
482.500000	0.244909  
483.000000	0.255515  
483.500000	0.263893  
484.000000	0.263356  
484.500000	0.261924  
485.000000	0.255871  
485.500000	0.251454  
486.000000	0.251303  
486.500000	0.257545  
487.000000	0.270878  
487.500000	0.282022  
488.000000	0.282719  
488.500000	0.276772  
489.000000	0.278151  
489.500000	0.287742  
490.000000	0.292250  
490.500000	0.285295  
491.000000	0.276030  
491.500000	0.277984  
492.000000	0.280492  
492.500000	0.274575  
493.000000	0.264303  
493.500000	0.263409  
494.000000	0.270893  
494.500000	0.284174  
495.000000	0.292765  
495.500000	0.305318  
496.000000	0.310356  
496.500000	0.312916  
497.000000	0.306530  
497.500000	0.303545  
498.000000	0.293727  
498.500000	0.292954  
499.000000	0.297553  
499.500000	0.307136  
500.000000	0.303386  
500.500000	0.290083  
501.000000	0.277621  
501.500000	0.277492  
502.000000	0.287553  
502.500000	0.299022  
503.000000	0.300560  
503.500000	0.295265  
504.000000	0.289666  
504.500000	0.292765  
505.000000	0.299098  
505.500000	0.295962  
506.000000	0.281227  
506.500000	0.283674  
507.000000	0.299075  
507.500000	0.311045  
508.000000	0.303424  
508.500000	0.295878  
509.000000	0.295416  
509.500000	0.294909  
510.000000	0.284719  
510.500000	0.277416  
511.000000	0.279431  
511.500000	0.283265  
512.000000	0.288143  
512.500000	0.288212  
513.000000	0.285704  
513.500000	0.281946  
514.000000	0.288318  
514.500000	0.293545  
515.000000	0.295795  
515.500000	0.287477  
516.000000	0.283674  
516.500000	0.280613  
517.000000	0.282022  
517.500000	0.277265  
518.000000	0.274348  
518.500000	0.266681  
519.000000	0.262128  
519.500000	0.258250  
520.000000	0.260242  
520.500000	0.265537  
521.000000	0.273742  
521.500000	0.284409  
522.000000	0.288984  
522.500000	0.284962  
523.000000	0.279659  
523.500000	0.286689  
524.000000	0.299454  
524.500000	0.303083  
525.000000	0.286833  
525.500000	0.266825  
526.000000	0.261098  
526.500000	0.261810  
527.000000	0.266901  
527.500000	0.273689  
528.000000	0.286083  
528.500000	0.292219  
529.000000	0.285007  
529.500000	0.267909  
530.000000	0.254553  
530.500000	0.243962  
531.000000	0.241121  
531.500000	0.250871  
532.000000	0.263553  
532.500000	0.264568  
533.000000	0.251446  
533.500000	0.245037  
534.000000	0.252871  
534.500000	0.264916  
535.000000	0.264257  
535.500000	0.263401  
536.000000	0.266575  
536.500000	0.274401  
537.000000	0.277696  
537.500000	0.272977  
538.000000	0.260545  
538.500000	0.245477  
539.000000	0.238356  
539.500000	0.237810  
540.000000	0.245962  
540.500000	0.246659  
541.000000	0.249242  
541.500000	0.248924  
542.000000	0.252045  
542.500000	0.248962  
543.000000	0.251333  
543.500000	0.253818  
544.000000	0.256924  
544.500000	0.251318  
545.000000	0.245174  
545.500000	0.248590  
546.000000	0.255825  
546.500000	0.259598  
547.000000	0.253227  
547.500000	0.250825  
548.000000	0.251560  
548.500000	0.257045  
549.000000	0.253212  
549.500000	0.250083  
550.000000	0.244893  
550.500000	0.252378  
551.000000	0.258318  
551.500000	0.262280  
552.000000	0.252325  
552.500000	0.245590  
553.000000	0.241818  
553.500000	0.253871  
554.000000	0.263272  
554.500000	0.264318  
555.000000	0.252886  
555.500000	0.244522  
556.000000	0.242424  
556.500000	0.245931  
557.000000	0.242280  
557.500000	0.235833  
558.000000	0.229136  
558.500000	0.224742  
559.000000	0.221227  
559.500000	0.221462  
560.000000	0.223878  
560.500000	0.226280  
561.000000	0.233113  
561.500000	0.239204  
562.000000	0.241106  
562.500000	0.230583  
563.000000	0.218242  
563.500000	0.211946  
564.000000	0.217992  
564.500000	0.227560  
565.000000	0.233128  
565.500000	0.227416  
566.000000	0.215871  
566.500000	0.212992  
567.000000	0.224621  
567.500000	0.235121  
568.000000	0.235742  
568.500000	0.225060  
569.000000	0.218560  
569.500000	0.221772  
570.000000	0.226234  
570.500000	0.223734  
571.000000	0.220765  
571.500000	0.224742  
572.000000	0.231143  
572.500000	0.226681  
573.000000	0.214977  
573.500000	0.215363  
574.000000	0.223416  
574.500000	0.224924  
575.000000	0.219704  
575.500000	0.222984  
576.000000	0.232068  
576.500000	0.237098  
577.000000	0.228015  
577.500000	0.214348  
578.000000	0.209446  
578.500000	0.209825  
579.000000	0.215280  
579.500000	0.215250  
580.000000	0.217575  
580.500000	0.217818  
581.000000	0.223363  
581.500000	0.224856  
582.000000	0.225303  
582.500000	0.220613  
583.000000	0.211287  
583.500000	0.199590  
584.000000	0.196848  
584.500000	0.206212  
585.000000	0.219037  
585.500000	0.225530  
586.000000	0.222787  
586.500000	0.216189  
587.000000	0.212719  
587.500000	0.214833  
588.000000	0.218484  
588.500000	0.218462  
589.000000	0.215295  
589.500000	0.219189  
590.000000	0.232000  

