PE FL                   SPECTRUM    ASCII       PEDS        1.60        
  -1
01#199.SP
02/03/17
06:20:21.00
02/03/17
06:23:36.00


700.000000
1









LS55
365.00
5.00
5.00
SCAN
1
20
100
100
0
100
0
1
0
1
7
ON
500 470 
1 0 0
#HDR
-1
-1
#GR
NM

0.00002384185791015625
0.0
390.000000
0.500000
621
8
0.638234
-0.000242
#DATA
390.000000	0.000000  
390.500000	0.000000  
391.000000	0.000000  
391.500000	0.000000  
392.000000	0.000000  
392.500000	0.000000  
393.000000	-0.000121 
393.500000	-0.000106 
394.000000	0.000818  
394.500000	0.001969  
395.000000	0.002303  
395.500000	0.001227  
396.000000	0.000151  
396.500000	-0.000242 
397.000000	0.000000  
397.500000	0.000000  
398.000000	0.000000  
398.500000	0.000000  
399.000000	0.000000  
399.500000	0.000000  
400.000000	0.000000  
400.500000	0.000000  
401.000000	0.000000  
401.500000	0.000000  
402.000000	0.000000  
402.500000	0.000000  
403.000000	0.000000  
403.500000	0.000000  
404.000000	0.000000  
404.500000	0.000000  
405.000000	0.000000  
405.500000	0.000000  
406.000000	0.000000  
406.500000	0.000000  
407.000000	0.000000  
407.500000	0.000000  
408.000000	0.000000  
408.500000	0.000000  
409.000000	0.000000  
409.500000	0.000000  
410.000000	0.000000  
410.500000	0.000000  
411.000000	0.000000  
411.500000	0.000000  
412.000000	0.000000  
412.500000	0.000000  
413.000000	0.000000  
413.500000	0.000000  
414.000000	-0.000060 
414.500000	-0.000053 
415.000000	0.000409  
415.500000	0.000984  
416.000000	0.001151  
416.500000	0.000613  
417.000000	0.000015  
417.500000	-0.000234 
418.000000	0.000356  
418.500000	0.001393  
419.000000	0.002075  
419.500000	0.001712  
420.000000	0.001098  
420.500000	0.000878  
421.000000	0.000977  
421.500000	0.000901  
422.000000	0.000833  
422.500000	0.001500  
423.000000	0.002765  
423.500000	0.005553  
424.000000	0.010280  
424.500000	0.013151  
425.000000	0.010681  
425.500000	0.004166  
426.000000	0.001500  
426.500000	0.003431  
427.000000	0.006371  
427.500000	0.005015  
428.000000	0.003787  
428.500000	0.005621  
429.000000	0.011234  
429.500000	0.016068  
430.000000	0.017166  
430.500000	0.013477  
431.000000	0.007166  
431.500000	0.003090  
432.000000	0.003878  
432.500000	0.008053  
433.000000	0.011280  
433.500000	0.015053  
434.000000	0.019515  
434.500000	0.024931  
435.000000	0.029628  
435.500000	0.033378  
436.000000	0.032628  
436.500000	0.028643  
437.000000	0.029189  
437.500000	0.037825  
438.000000	0.050386  
438.500000	0.058204  
439.000000	0.060340  
439.500000	0.055106  
440.000000	0.049787  
440.500000	0.049174  
441.000000	0.057030  
441.500000	0.064325  
442.000000	0.067727  
442.500000	0.071568  
443.000000	0.078962  
443.500000	0.087848  
444.000000	0.092030  
444.500000	0.093257  
445.000000	0.096022  
445.500000	0.104128  
446.000000	0.111939  
446.500000	0.118219  
447.000000	0.115393  
447.500000	0.111287  
448.000000	0.113386  
448.500000	0.124590  
449.000000	0.137780  
449.500000	0.146333  
450.000000	0.148181  
450.500000	0.146863  
451.000000	0.150795  
451.500000	0.163621  
452.000000	0.179636  
452.500000	0.182583  
453.000000	0.172265  
453.500000	0.169803  
454.000000	0.185356  
454.500000	0.207674  
455.000000	0.213446  
455.500000	0.202401  
456.000000	0.193454  
456.500000	0.193568  
457.000000	0.196651  
457.500000	0.200825  
458.000000	0.216568  
458.500000	0.235530  
459.000000	0.240621  
459.500000	0.232712  
460.000000	0.231803  
460.500000	0.250787  
461.000000	0.272750  
461.500000	0.281143  
462.000000	0.274681  
462.500000	0.272378  
463.000000	0.284719  
463.500000	0.306098  
464.000000	0.315287  
464.500000	0.311893  
465.000000	0.308909  
465.500000	0.317606  
466.000000	0.326886  
466.500000	0.332659  
467.000000	0.338106  
467.500000	0.351878  
468.000000	0.366825  
468.500000	0.365825  
469.000000	0.358530  
469.500000	0.360348  
470.000000	0.374924  
470.500000	0.382727  
471.000000	0.383606  
471.500000	0.387765  
472.000000	0.400030  
472.500000	0.406734  
473.000000	0.406780  
473.500000	0.414803  
474.000000	0.426689  
474.500000	0.429909  
475.000000	0.426242  
475.500000	0.427719  
476.000000	0.443939  
476.500000	0.459962  
477.000000	0.475931  
477.500000	0.482863  
478.000000	0.499303  
478.500000	0.510992  
479.000000	0.519060  
479.500000	0.508757  
480.000000	0.503045  
480.500000	0.507113  
481.000000	0.522553  
481.500000	0.528469  
482.000000	0.535378  
482.500000	0.544522  
483.000000	0.554325  
483.500000	0.549462  
484.000000	0.547416  
484.500000	0.560113  
485.000000	0.580045  
485.500000	0.593386  
486.000000	0.584325  
486.500000	0.572325  
487.000000	0.558901  
487.500000	0.563628  
488.000000	0.559037  
488.500000	0.557174  
489.000000	0.554681  
489.500000	0.572060  
490.000000	0.596386  
490.500000	0.612098  
491.000000	0.611939  
491.500000	0.607848  
492.000000	0.615833  
492.500000	0.628598  
493.000000	0.638234  
493.500000	0.627295  
494.000000	0.615439  
494.500000	0.604598  
495.000000	0.605371  
495.500000	0.608242  
496.000000	0.613113  
496.500000	0.611242  
497.000000	0.609053  
497.500000	0.611272  
498.000000	0.616568  
498.500000	0.630674  
499.000000	0.637295  
499.500000	0.635166  
500.000000	0.623484  
500.500000	0.626371  
501.000000	0.631780  
501.500000	0.633492  
502.000000	0.616234  
502.500000	0.604810  
503.000000	0.601969  
503.500000	0.606265  
504.000000	0.609462  
504.500000	0.608765  
505.000000	0.599787  
505.500000	0.594272  
506.000000	0.603568  
506.500000	0.619242  
507.000000	0.632386  
507.500000	0.631333  
508.000000	0.628621  
508.500000	0.618227  
509.000000	0.610946  
509.500000	0.614045  
510.000000	0.628977  
510.500000	0.637462  
511.000000	0.632196  
511.500000	0.616818  
512.000000	0.598696  
512.500000	0.593257  
513.000000	0.596462  
513.500000	0.612227  
514.000000	0.618113  
514.500000	0.612189  
515.000000	0.606462  
515.500000	0.611371  
516.000000	0.619893  
516.500000	0.622818  
517.000000	0.621128  
517.500000	0.625886  
518.000000	0.623583  
518.500000	0.618106  
519.000000	0.607954  
519.500000	0.607083  
520.000000	0.593037  
520.500000	0.584128  
521.000000	0.577333  
521.500000	0.586825  
522.000000	0.585651  
522.500000	0.580757  
523.000000	0.570136  
523.500000	0.569431  
524.000000	0.569242  
524.500000	0.568340  
525.000000	0.559060  
525.500000	0.555409  
526.000000	0.561696  
526.500000	0.581045  
527.000000	0.596818  
527.500000	0.602583  
528.000000	0.587924  
528.500000	0.572212  
529.000000	0.557068  
529.500000	0.562666  
530.000000	0.570030  
530.500000	0.574204  
531.000000	0.567878  
531.500000	0.566553  
532.000000	0.565416  
532.500000	0.568962  
533.000000	0.565924  
533.500000	0.556234  
534.000000	0.541204  
534.500000	0.534022  
535.000000	0.535219  
535.500000	0.540954  
536.000000	0.542401  
536.500000	0.551666  
537.000000	0.561249  
537.500000	0.559636  
538.000000	0.550083  
538.500000	0.545000  
539.000000	0.539378  
539.500000	0.528818  
540.000000	0.522181  
540.500000	0.522545  
541.000000	0.518734  
541.500000	0.503901  
542.000000	0.487575  
542.500000	0.491151  
543.000000	0.507818  
543.500000	0.527636  
544.000000	0.529507  
544.500000	0.523469  
545.000000	0.518606  
545.500000	0.522613  
546.000000	0.523310  
546.500000	0.524689  
547.000000	0.525984  
547.500000	0.523159  
548.000000	0.512060  
548.500000	0.508378  
549.000000	0.515590  
549.500000	0.516765  
550.000000	0.503553  
550.500000	0.495257  
551.000000	0.500462  
551.500000	0.500931  
552.000000	0.490795  
552.500000	0.473939  
553.000000	0.481545  
553.500000	0.493560  
554.000000	0.497431  
554.500000	0.479181  
555.000000	0.466401  
555.500000	0.462606  
556.000000	0.465560  
556.500000	0.466166  
557.000000	0.474234  
557.500000	0.486984  
558.000000	0.487469  
558.500000	0.476659  
559.000000	0.464371  
559.500000	0.462712  
560.000000	0.462772  
560.500000	0.465060  
561.000000	0.466303  
561.500000	0.468689  
562.000000	0.473075  
562.500000	0.480727  
563.000000	0.484962  
563.500000	0.476969  
564.000000	0.459651  
564.500000	0.443310  
565.000000	0.441030  
565.500000	0.446742  
566.000000	0.453795  
566.500000	0.457969  
567.000000	0.455378  
567.500000	0.452431  
568.000000	0.449636  
568.500000	0.454734  
569.000000	0.462742  
569.500000	0.469977  
570.000000	0.461098  
570.500000	0.441999  
571.000000	0.420946  
571.500000	0.413439  
572.000000	0.421007  
572.500000	0.431757  
573.000000	0.436242  
573.500000	0.438121  
574.000000	0.441871  
574.500000	0.442469  
575.000000	0.436075  
575.500000	0.429583  
576.000000	0.429446  
576.500000	0.434833  
577.000000	0.432287  
577.500000	0.426757  
578.000000	0.415606  
578.500000	0.409719  
579.000000	0.406553  
579.500000	0.416401  
580.000000	0.424522  
580.500000	0.423704  
581.000000	0.412818  
581.500000	0.409825  
582.000000	0.413378  
582.500000	0.415310  
583.000000	0.411909  
583.500000	0.410500  
584.000000	0.414121  
584.500000	0.412757  
585.000000	0.408386  
585.500000	0.401204  
586.000000	0.395810  
586.500000	0.387068  
587.000000	0.383212  
587.500000	0.379856  
588.000000	0.378734  
588.500000	0.377189  
589.000000	0.374833  
589.500000	0.373250  
590.000000	0.372515  
590.500000	0.385015  
591.000000	0.398318  
591.500000	0.409143  
592.000000	0.399666  
592.500000	0.385318  
593.000000	0.376287  
593.500000	0.383393  
594.000000	0.389234  
594.500000	0.382469  
595.000000	0.370750  
595.500000	0.366234  
596.000000	0.371613  
596.500000	0.373136  
597.000000	0.370780  
597.500000	0.363303  
598.000000	0.361409  
598.500000	0.364613  
599.000000	0.367446  
599.500000	0.360196  
600.000000	0.348424  
600.500000	0.344924  
601.000000	0.353318  
601.500000	0.370022  
602.000000	0.386750  
602.500000	0.393037  
603.000000	0.372386  
603.500000	0.345674  
604.000000	0.337931  
604.500000	0.353681  
605.000000	0.367234  
605.500000	0.365825  
606.000000	0.353143  
606.500000	0.338106  
607.000000	0.321575  
607.500000	0.305477  
608.000000	0.308151  
608.500000	0.326946  
609.000000	0.344704  
609.500000	0.336250  
610.000000	0.320060  
610.500000	0.319651  
611.000000	0.333674  
611.500000	0.329469  
612.000000	0.307545  
612.500000	0.290113  
613.000000	0.290492  
613.500000	0.302401  
614.000000	0.309803  
614.500000	0.312227  
615.000000	0.310295  
615.500000	0.307174  
616.000000	0.301037  
616.500000	0.288659  
617.000000	0.282469  
617.500000	0.287265  
618.000000	0.296727  
618.500000	0.292636  
619.000000	0.290734  
619.500000	0.296242  
620.000000	0.302113  
620.500000	0.293992  
621.000000	0.277280  
621.500000	0.275659  
622.000000	0.284803  
622.500000	0.290628  
623.000000	0.273742  
623.500000	0.255128  
624.000000	0.246545  
624.500000	0.253128  
625.000000	0.249545  
625.500000	0.238765  
626.000000	0.232439  
626.500000	0.238583  
627.000000	0.245174  
627.500000	0.247651  
628.000000	0.250545  
628.500000	0.249492  
629.000000	0.242553  
629.500000	0.234143  
630.000000	0.234553  
630.500000	0.242621  
631.000000	0.248765  
631.500000	0.243219  
632.000000	0.233030  
632.500000	0.227409  
633.000000	0.224151  
633.500000	0.221257  
634.000000	0.219371  
634.500000	0.225446  
635.000000	0.229750  
635.500000	0.222212  
636.000000	0.209886  
636.500000	0.202310  
637.000000	0.200295  
637.500000	0.200340  
638.000000	0.204628  
638.500000	0.207007  
639.000000	0.207484  
639.500000	0.204598  
640.000000	0.203598  
640.500000	0.204196  
641.000000	0.201022  
641.500000	0.207280  
642.000000	0.211469  
642.500000	0.209916  
643.000000	0.196136  
643.500000	0.193696  
644.000000	0.199931  
644.500000	0.211000  
645.000000	0.206651  
645.500000	0.196818  
646.000000	0.184030  
646.500000	0.181030  
647.000000	0.181803  
647.500000	0.188090  
648.000000	0.185128  
648.500000	0.179719  
649.000000	0.172962  
649.500000	0.166772  
650.000000	0.160583  
650.500000	0.153613  
651.000000	0.155250  
651.500000	0.158606  
652.000000	0.163272  
652.500000	0.160598  
653.000000	0.158530  
653.500000	0.155272  
654.000000	0.152833  
654.500000	0.153856  
655.000000	0.160106  
655.500000	0.166636  
656.000000	0.166424  
656.500000	0.163628  
657.000000	0.161719  
657.500000	0.159151  
658.000000	0.150553  
658.500000	0.139431  
659.000000	0.133272  
659.500000	0.134204  
660.000000	0.135234  
660.500000	0.135484  
661.000000	0.132378  
661.500000	0.124212  
662.000000	0.114840  
662.500000	0.112212  
663.000000	0.116257  
663.500000	0.121984  
664.000000	0.130295  
664.500000	0.137818  
665.000000	0.134833  
665.500000	0.118454  
666.000000	0.105128  
666.500000	0.110083  
667.000000	0.118022  
667.500000	0.116007  
668.000000	0.104204  
668.500000	0.098651  
669.000000	0.098189  
669.500000	0.103030  
670.000000	0.104045  
670.500000	0.100106  
671.000000	0.094234  
671.500000	0.091848  
672.000000	0.090356  
672.500000	0.083878  
673.000000	0.072939  
673.500000	0.073840  
674.000000	0.085840  
674.500000	0.098954  
675.000000	0.094651  
675.500000	0.086249  
676.000000	0.079424  
676.500000	0.082757  
677.000000	0.083598  
677.500000	0.081537  
678.000000	0.078553  
678.500000	0.077545  
679.000000	0.078636  
679.500000	0.077424  
680.000000	0.074030  
680.500000	0.067530  
681.000000	0.065628  
681.500000	0.067530  
682.000000	0.070053  
682.500000	0.067098  
683.000000	0.060727  
683.500000	0.054121  
684.000000	0.047598  
684.500000	0.039643  
685.000000	0.038098  
685.500000	0.048068  
686.000000	0.062924  
686.500000	0.065386  
687.000000	0.054878  
687.500000	0.043356  
688.000000	0.038166  
688.500000	0.040704  
689.000000	0.045416  
689.500000	0.055598  
690.000000	0.061643  
690.500000	0.064772  
691.000000	0.057492  
691.500000	0.054431  
692.000000	0.048454  
692.500000	0.046128  
693.000000	0.038590  
693.500000	0.031386  
694.000000	0.025250  
694.500000	0.030515  
695.000000	0.037454  
695.500000	0.039878  
696.000000	0.029757  
696.500000	0.017946  
697.000000	0.017053  
697.500000	0.025060  
698.000000	0.033295  
698.500000	0.035780  
699.000000	0.032878  
699.500000	0.020628  
700.000000	0.000000  

