PE FL                   SPECTRUM    ASCII       PEDS        1.60        
  -1
01#198.SP
02/03/17
06:17:21.00
02/03/17
06:19:34.00


470.000000
1









LS55
500.00
5.00
5.00
SCAN
1
20
100
100
0
100
0
0
0
1
7
ON
590 310 
1 0 0
#HDR
-1
-1
#GR
NM

0.00002384185791015625
0.0
270.000000
0.500000
401
8
0.643090
0.026000
#DATA
270.000000	0.026000 
270.500000	0.068075 
271.000000	0.092409 
271.500000	0.096181 
272.000000	0.091681 
272.500000	0.081916 
273.000000	0.068818 
273.500000	0.059363 
274.000000	0.063106 
274.500000	0.075022 
275.000000	0.089757 
275.500000	0.096590 
276.000000	0.096575 
276.500000	0.092318 
277.000000	0.096409 
277.500000	0.096515 
278.000000	0.094704 
278.500000	0.076522 
279.000000	0.065810 
279.500000	0.062401 
280.000000	0.070840 
280.500000	0.076000 
281.000000	0.077636 
281.500000	0.078037 
282.000000	0.084560 
282.500000	0.095969 
283.000000	0.101674 
283.500000	0.099901 
284.000000	0.095901 
284.500000	0.093356 
285.000000	0.093757 
285.500000	0.091704 
286.000000	0.094772 
286.500000	0.094340 
287.000000	0.095181 
287.500000	0.090325 
288.000000	0.086878 
288.500000	0.083803 
289.000000	0.083189 
289.500000	0.076113 
290.000000	0.069871 
290.500000	0.069492 
291.000000	0.083568 
291.500000	0.092083 
292.000000	0.089696 
292.500000	0.080780 
293.000000	0.079151 
293.500000	0.086325 
294.000000	0.098810 
294.500000	0.105818 
295.000000	0.103719 
295.500000	0.099780 
296.000000	0.109454 
296.500000	0.129136 
297.000000	0.137121 
297.500000	0.128068 
298.000000	0.117909 
298.500000	0.119037 
299.000000	0.140719 
299.500000	0.166189 
300.000000	0.190628 
300.500000	0.198575 
301.000000	0.198719 
301.500000	0.196151 
302.000000	0.207621 
302.500000	0.222174 
303.000000	0.237606 
303.500000	0.241598 
304.000000	0.245037 
304.500000	0.246590 
305.000000	0.249969 
305.500000	0.250416 
306.000000	0.260121 
306.500000	0.266416 
307.000000	0.273666 
307.500000	0.272704 
308.000000	0.279825 
308.500000	0.288598 
309.000000	0.296492 
309.500000	0.294280 
310.000000	0.287159 
310.500000	0.282962 
311.000000	0.283530 
311.500000	0.282060 
312.000000	0.273795 
312.500000	0.281954 
313.000000	0.303007 
313.500000	0.322674 
314.000000	0.317515 
314.500000	0.310901 
315.000000	0.305386 
315.500000	0.305583 
316.000000	0.300681 
316.500000	0.308219 
317.000000	0.319424 
317.500000	0.335446 
318.000000	0.347507 
318.500000	0.356371 
319.000000	0.348909 
319.500000	0.337045 
320.000000	0.338553 
320.500000	0.349636 
321.000000	0.354378 
321.500000	0.344856 
322.000000	0.341234 
322.500000	0.340901 
323.000000	0.344409 
323.500000	0.337825 
324.000000	0.330795 
324.500000	0.329136 
325.000000	0.333484 
325.500000	0.339909 
326.000000	0.344772 
326.500000	0.357333 
327.000000	0.364560 
327.500000	0.367409 
328.000000	0.362568 
328.500000	0.363969 
329.000000	0.366901 
329.500000	0.376954 
330.000000	0.385939 
330.500000	0.392295 
331.000000	0.389560 
331.500000	0.382530 
332.000000	0.380621 
332.500000	0.382530 
333.000000	0.391856 
333.500000	0.400287 
334.000000	0.407378 
334.500000	0.404818 
335.000000	0.404234 
335.500000	0.399810 
336.000000	0.398424 
336.500000	0.398901 
337.000000	0.401477 
337.500000	0.402583 
338.000000	0.404613 
338.500000	0.408969 
339.000000	0.416318 
339.500000	0.425121 
340.000000	0.429083 
340.500000	0.432613 
341.000000	0.434250 
341.500000	0.440075 
342.000000	0.442583 
342.500000	0.438469 
343.000000	0.432409 
343.500000	0.433393 
344.000000	0.436386 
344.500000	0.439674 
345.000000	0.450159 
345.500000	0.467250 
346.000000	0.478371 
346.500000	0.475598 
347.000000	0.460931 
347.500000	0.448674 
348.000000	0.453659 
348.500000	0.477446 
349.000000	0.501560 
349.500000	0.502696 
350.000000	0.485772 
350.500000	0.475219 
351.000000	0.477113 
351.500000	0.481659 
352.000000	0.485348 
352.500000	0.499893 
353.000000	0.517598 
353.500000	0.527969 
354.000000	0.524537 
354.500000	0.521954 
355.000000	0.532037 
355.500000	0.546643 
356.000000	0.549878 
356.500000	0.541060 
357.000000	0.530886 
357.500000	0.530628 
358.000000	0.544454 
358.500000	0.568340 
359.000000	0.585136 
359.500000	0.586295 
360.000000	0.579196 
360.500000	0.580848 
361.000000	0.595568 
361.500000	0.608075 
362.000000	0.606795 
362.500000	0.592583 
363.000000	0.577840 
363.500000	0.568545 
364.000000	0.575393 
364.500000	0.586939 
365.000000	0.602484 
365.500000	0.604272 
366.000000	0.607515 
366.500000	0.609242 
367.000000	0.621106 
367.500000	0.626174 
368.000000	0.629856 
368.500000	0.631916 
369.000000	0.637416 
369.500000	0.643090 
370.000000	0.641189 
370.500000	0.629356 
371.000000	0.611090 
371.500000	0.602181 
372.000000	0.611863 
372.500000	0.625530 
373.000000	0.636825 
373.500000	0.637022 
374.000000	0.632265 
374.500000	0.620689 
375.000000	0.610053 
375.500000	0.610090 
376.000000	0.620318 
376.500000	0.624674 
377.000000	0.614068 
377.500000	0.601749 
378.000000	0.589727 
378.500000	0.584931 
379.000000	0.584136 
379.500000	0.580575 
380.000000	0.568325 
380.500000	0.541560 
381.000000	0.525924 
381.500000	0.525530 
382.000000	0.538780 
382.500000	0.539484 
383.000000	0.535159 
383.500000	0.527015 
384.000000	0.529159 
384.500000	0.522212 
385.000000	0.501909 
385.500000	0.480598 
386.000000	0.481356 
386.500000	0.488462 
387.000000	0.484007 
387.500000	0.463666 
388.000000	0.455863 
388.500000	0.454022 
389.000000	0.453507 
389.500000	0.440742 
390.000000	0.432689 
390.500000	0.420295 
391.000000	0.415250 
391.500000	0.415848 
392.000000	0.420189 
392.500000	0.409636 
393.000000	0.389856 
393.500000	0.371303 
394.000000	0.370045 
394.500000	0.376348 
395.000000	0.378659 
395.500000	0.369356 
396.000000	0.355803 
396.500000	0.348439 
397.000000	0.347340 
397.500000	0.351053 
398.000000	0.353090 
398.500000	0.356886 
399.000000	0.353386 
399.500000	0.345060 
400.000000	0.334303 
400.500000	0.326401 
401.000000	0.318469 
401.500000	0.309651 
402.000000	0.304643 
402.500000	0.293742 
403.000000	0.280484 
403.500000	0.261712 
404.000000	0.252886 
404.500000	0.258318 
405.000000	0.276121 
405.500000	0.281772 
406.000000	0.269795 
406.500000	0.250553 
407.000000	0.240075 
407.500000	0.234909 
408.000000	0.232189 
408.500000	0.231295 
409.000000	0.232159 
409.500000	0.222750 
410.000000	0.208212 
410.500000	0.197689 
411.000000	0.201484 
411.500000	0.211106 
412.000000	0.217083 
412.500000	0.215090 
413.000000	0.208992 
413.500000	0.207250 
414.000000	0.203969 
414.500000	0.197666 
415.000000	0.186924 
415.500000	0.181477 
416.000000	0.177060 
416.500000	0.170219 
417.000000	0.161227 
417.500000	0.160750 
418.000000	0.167136 
418.500000	0.169795 
419.000000	0.161083 
419.500000	0.155212 
420.000000	0.159075 
420.500000	0.167098 
421.000000	0.168068 
421.500000	0.167242 
422.000000	0.161628 
422.500000	0.155303 
423.000000	0.148583 
423.500000	0.149477 
424.000000	0.148522 
424.500000	0.141787 
425.000000	0.134431 
425.500000	0.136969 
426.000000	0.142257 
426.500000	0.144174 
427.000000	0.144681 
427.500000	0.144371 
428.000000	0.141143 
428.500000	0.134310 
429.000000	0.132007 
429.500000	0.132181 
430.000000	0.129356 
430.500000	0.121643 
431.000000	0.115969 
431.500000	0.119893 
432.000000	0.130280 
432.500000	0.140613 
433.000000	0.144795 
433.500000	0.145151 
434.000000	0.141196 
434.500000	0.136628 
435.000000	0.130575 
435.500000	0.128757 
436.000000	0.132977 
436.500000	0.137810 
437.000000	0.134439 
437.500000	0.130590 
438.000000	0.134007 
438.500000	0.141863 
439.000000	0.140196 
439.500000	0.130053 
440.000000	0.123780 
440.500000	0.128666 
441.000000	0.132666 
441.500000	0.130598 
442.000000	0.128416 
442.500000	0.131318 
443.000000	0.137780 
443.500000	0.142681 
444.000000	0.142204 
444.500000	0.136196 
445.000000	0.128590 
445.500000	0.121651 
446.000000	0.119689 
446.500000	0.122621 
447.000000	0.125151 
447.500000	0.124022 
448.000000	0.121454 
448.500000	0.122590 
449.000000	0.122689 
449.500000	0.121401 
450.000000	0.116303 
450.500000	0.113037 
451.000000	0.112803 
451.500000	0.112068 
452.000000	0.106848 
452.500000	0.101121 
453.000000	0.097484 
453.500000	0.099848 
454.000000	0.103227 
454.500000	0.102825 
455.000000	0.100613 
455.500000	0.105469 
456.000000	0.115492 
456.500000	0.126000 
457.000000	0.126803 
457.500000	0.121666 
458.000000	0.118333 
458.500000	0.119803 
459.000000	0.119378 
459.500000	0.114810 
460.000000	0.110098 
460.500000	0.109931 
461.000000	0.116500 
461.500000	0.123022 
462.000000	0.125166 
462.500000	0.120469 
463.000000	0.114742 
463.500000	0.109765 
464.000000	0.107371 
464.500000	0.107227 
465.000000	0.112318 
465.500000	0.121174 
466.000000	0.123825 
466.500000	0.123772 
467.000000	0.124234 
467.500000	0.134613 
468.000000	0.146325 
468.500000	0.152265 
469.000000	0.150083 
469.500000	0.159492 
470.000000	0.182000 

