PE FL                   SPECTRUM    ASCII       PEDS        1.60        
  -1
01#201.SP
02/03/17
06:26:41.00
02/03/17
06:29:08.00


530.000000
1









LS55
280.00
5.00
5.00
SCAN
1
20
100
100
0
100
0
1
0
1
7
ON
450 400 
1 0 0
#HDR
-1
-1
#GR
NM

0.00002384185791015625
0.0
300.000000
0.500000
461
8
0.115818
-0.000484
#DATA
300.000000	-0.000000 
300.500000	0.003409  
301.000000	0.004181  
301.500000	0.002257  
302.000000	0.000249  
302.500000	0.000060  
303.000000	0.001469  
303.500000	0.001856  
304.000000	0.001704  
304.500000	0.001742  
305.000000	0.001727  
305.500000	0.000984  
306.000000	0.000757  
306.500000	0.001166  
307.000000	0.001681  
307.500000	0.002189  
308.000000	0.003098  
308.500000	0.004363  
309.000000	0.003727  
309.500000	0.001803  
310.000000	0.001075  
310.500000	0.005553  
311.000000	0.010803  
311.500000	0.011893  
312.000000	0.008249  
312.500000	0.004522  
313.000000	0.003303  
313.500000	0.002075  
314.000000	0.000424  
314.500000	-0.000484 
315.000000	0.000000  
315.500000	-0.000060 
316.000000	-0.000174 
316.500000	0.000484  
317.000000	0.001234  
317.500000	0.002106  
318.000000	0.003431  
318.500000	0.006393  
319.000000	0.008037  
319.500000	0.006530  
320.000000	0.002325  
320.500000	0.000484  
321.000000	0.001045  
321.500000	0.002030  
322.000000	0.001159  
322.500000	0.000212  
323.000000	-0.000363 
323.500000	-0.000348 
324.000000	0.001030  
324.500000	0.002886  
325.000000	0.004606  
325.500000	0.003848  
326.000000	0.002454  
326.500000	0.000674  
327.000000	0.000212  
327.500000	-0.000242 
328.000000	0.000000  
328.500000	0.000000  
329.000000	0.000000  
329.500000	0.000000  
330.000000	0.000000  
330.500000	0.000000  
331.000000	0.000000  
331.500000	0.000000  
332.000000	0.000000  
332.500000	0.000000  
333.000000	0.000000  
333.500000	0.000000  
334.000000	0.000000  
334.500000	0.000000  
335.000000	0.000000  
335.500000	0.000000  
336.000000	0.000000  
336.500000	0.000000  
337.000000	0.000000  
337.500000	0.000000  
338.000000	0.000000  
338.500000	0.000000  
339.000000	0.000000  
339.500000	0.000000  
340.000000	0.000000  
340.500000	0.000000  
341.000000	0.000000  
341.500000	0.000000  
342.000000	0.000000  
342.500000	0.000000  
343.000000	0.000000  
343.500000	0.000000  
344.000000	0.000000  
344.500000	0.000000  
345.000000	0.000000  
345.500000	0.000000  
346.000000	0.000000  
346.500000	0.000000  
347.000000	0.000000  
347.500000	0.000000  
348.000000	0.000000  
348.500000	0.000000  
349.000000	0.000000  
349.500000	0.000000  
350.000000	0.000000  
350.500000	0.000000  
351.000000	0.000000  
351.500000	0.000000  
352.000000	0.000000  
352.500000	0.000000  
353.000000	0.000000  
353.500000	0.000000  
354.000000	0.000000  
354.500000	0.000000  
355.000000	0.000000  
355.500000	0.000000  
356.000000	0.000000  
356.500000	0.000000  
357.000000	0.000000  
357.500000	0.000000  
358.000000	0.000000  
358.500000	0.000000  
359.000000	0.000000  
359.500000	0.000000  
360.000000	0.000000  
360.500000	0.000000  
361.000000	0.000000  
361.500000	0.000000  
362.000000	0.000000  
362.500000	0.000000  
363.000000	0.000000  
363.500000	0.000000  
364.000000	0.000000  
364.500000	0.000000  
365.000000	0.000000  
365.500000	0.000000  
366.000000	0.000000  
366.500000	0.000000  
367.000000	0.000000  
367.500000	0.000000  
368.000000	0.000000  
368.500000	0.000000  
369.000000	0.000000  
369.500000	0.000000  
370.000000	0.000000  
370.500000	0.000000  
371.000000	0.000000  
371.500000	0.000000  
372.000000	0.000000  
372.500000	0.000000  
373.000000	0.000000  
373.500000	0.000000  
374.000000	0.000000  
374.500000	0.000000  
375.000000	0.000000  
375.500000	0.000000  
376.000000	0.000000  
376.500000	0.000000  
377.000000	0.000000  
377.500000	0.000000  
378.000000	0.000000  
378.500000	-0.000060 
379.000000	-0.000174 
379.500000	0.000545  
380.000000	0.001530  
380.500000	0.002030  
381.000000	0.001159  
381.500000	0.000212  
382.000000	-0.000242 
382.500000	0.000000  
383.000000	0.000000  
383.500000	0.000000  
384.000000	0.000000  
384.500000	0.000000  
385.000000	0.000000  
385.500000	0.000000  
386.000000	0.000000  
386.500000	0.000000  
387.000000	0.000000  
387.500000	0.000000  
388.000000	0.000000  
388.500000	0.000000  
389.000000	0.000000  
389.500000	0.000000  
390.000000	0.000000  
390.500000	0.000000  
391.000000	0.000000  
391.500000	0.000000  
392.000000	0.000000  
392.500000	0.000000  
393.000000	0.000000  
393.500000	0.000000  
394.000000	0.000000  
394.500000	0.000000  
395.000000	0.000000  
395.500000	0.000000  
396.000000	0.000000  
396.500000	0.000000  
397.000000	0.000000  
397.500000	0.000000  
398.000000	0.000000  
398.500000	0.000000  
399.000000	0.000000  
399.500000	0.000000  
400.000000	0.000000  
400.500000	0.000000  
401.000000	0.000000  
401.500000	0.000000  
402.000000	0.000000  
402.500000	0.000000  
403.000000	0.000000  
403.500000	0.000000  
404.000000	0.000000  
404.500000	0.000000  
405.000000	0.000000  
405.500000	0.000000  
406.000000	0.000000  
406.500000	0.000000  
407.000000	0.000000  
407.500000	0.000000  
408.000000	0.000000  
408.500000	0.000000  
409.000000	0.000000  
409.500000	0.000000  
410.000000	0.000000  
410.500000	0.000000  
411.000000	0.000000  
411.500000	0.000000  
412.000000	0.000000  
412.500000	0.000000  
413.000000	0.000000  
413.500000	0.000000  
414.000000	0.000000  
414.500000	0.000000  
415.000000	0.000000  
415.500000	0.000000  
416.000000	0.000000  
416.500000	0.000000  
417.000000	0.000000  
417.500000	0.000000  
418.000000	0.000000  
418.500000	0.000000  
419.000000	0.000000  
419.500000	0.000000  
420.000000	-0.000060 
420.500000	-0.000174 
421.000000	0.000545  
421.500000	0.001530  
422.000000	0.002030  
422.500000	0.001159  
423.000000	0.000212  
423.500000	-0.000242 
424.000000	0.000000  
424.500000	0.000000  
425.000000	0.000000  
425.500000	0.000000  
426.000000	0.000000  
426.500000	0.000000  
427.000000	0.000000  
427.500000	0.000000  
428.000000	0.000000  
428.500000	0.000000  
429.000000	0.000000  
429.500000	0.000000  
430.000000	0.000000  
430.500000	0.000000  
431.000000	0.000000  
431.500000	0.000000  
432.000000	0.000000  
432.500000	0.000000  
433.000000	0.000000  
433.500000	-0.000060 
434.000000	-0.000174 
434.500000	0.000545  
435.000000	0.001530  
435.500000	0.002030  
436.000000	0.001159  
436.500000	0.000212  
437.000000	-0.000242 
437.500000	0.000000  
438.000000	0.000000  
438.500000	0.000000  
439.000000	0.000000  
439.500000	0.000000  
440.000000	0.000000  
440.500000	0.000000  
441.000000	0.000000  
441.500000	0.000000  
442.000000	0.000000  
442.500000	0.000000  
443.000000	-0.000060 
443.500000	-0.000174 
444.000000	0.000545  
444.500000	0.001469  
445.000000	0.001856  
445.500000	0.001704  
446.000000	0.001742  
446.500000	0.001787  
447.000000	0.001037  
447.500000	-0.000136 
448.000000	0.000727  
448.500000	0.002712  
449.000000	0.005151  
449.500000	0.005378  
450.000000	0.004363  
450.500000	0.001484  
451.000000	0.001515  
451.500000	0.002575  
452.000000	0.004000  
452.500000	0.002143  
453.000000	0.000848  
453.500000	0.000696  
454.000000	0.003000  
454.500000	0.003871  
455.000000	0.005242  
455.500000	0.004727  
456.000000	0.005280  
456.500000	0.005030  
457.000000	0.006871  
457.500000	0.006992  
458.000000	0.006666  
458.500000	0.007083  
459.000000	0.012265  
459.500000	0.018689  
460.000000	0.024113  
460.500000	0.023659  
461.000000	0.017553  
461.500000	0.008030  
462.000000	0.006924  
462.500000	0.012242  
463.000000	0.019219  
463.500000	0.015250  
464.000000	0.008386  
464.500000	0.004689  
465.000000	0.009401  
465.500000	0.019454  
466.000000	0.031454  
466.500000	0.037113  
467.000000	0.032227  
467.500000	0.025803  
468.000000	0.023136  
468.500000	0.026310  
469.000000	0.027409  
469.500000	0.024704  
470.000000	0.021242  
470.500000	0.020719  
471.000000	0.021757  
471.500000	0.022803  
472.000000	0.024409  
472.500000	0.025833  
473.000000	0.024378  
473.500000	0.019356  
474.000000	0.019136  
474.500000	0.025166  
475.000000	0.036643  
475.500000	0.045840  
476.000000	0.050007  
476.500000	0.048234  
477.000000	0.043189  
477.500000	0.042803  
478.000000	0.051507  
478.500000	0.063037  
479.000000	0.064780  
479.500000	0.057984  
480.000000	0.055401  
480.500000	0.066113  
481.000000	0.077265  
481.500000	0.078098  
482.000000	0.074689  
482.500000	0.075916  
483.000000	0.079250  
483.500000	0.079000  
484.000000	0.073022  
484.500000	0.069106  
485.000000	0.069840  
485.500000	0.075780  
486.000000	0.077962  
486.500000	0.076492  
487.000000	0.072106  
487.500000	0.068696  
488.000000	0.069242  
488.500000	0.081174  
489.000000	0.104666  
489.500000	0.115818  
490.000000	0.104856  
490.500000	0.081462  
491.000000	0.071803  
491.500000	0.082045  
492.000000	0.093484  
492.500000	0.089878  
493.000000	0.081856  
493.500000	0.087977  
494.000000	0.093068  
494.500000	0.085280  
495.000000	0.072431  
495.500000	0.071515  
496.000000	0.081984  
496.500000	0.079401  
497.000000	0.071575  
497.500000	0.065681  
498.000000	0.073962  
498.500000	0.080583  
499.000000	0.083484  
499.500000	0.073393  
500.000000	0.064507  
500.500000	0.061446  
501.000000	0.063636  
501.500000	0.066553  
502.000000	0.067946  
502.500000	0.067712  
503.000000	0.064931  
503.500000	0.065863  
504.000000	0.063462  
504.500000	0.062469  
505.000000	0.061568  
505.500000	0.067431  
506.000000	0.067098  
506.500000	0.063962  
507.000000	0.061840  
507.500000	0.069810  
508.000000	0.079704  
508.500000	0.083984  
509.000000	0.082075  
509.500000	0.071098  
510.000000	0.052075  
510.500000	0.037749  
511.000000	0.047037  
511.500000	0.065121  
512.000000	0.072742  
512.500000	0.058424  
513.000000	0.041287  
513.500000	0.039196  
514.000000	0.054136  
514.500000	0.071295  
515.000000	0.075515  
515.500000	0.060818  
516.000000	0.048030  
516.500000	0.056234  
517.000000	0.078053  
517.500000	0.085606  
518.000000	0.071257  
518.500000	0.057621  
519.000000	0.055704  
519.500000	0.064969  
520.000000	0.064196  
520.500000	0.064636  
521.000000	0.062840  
521.500000	0.066878  
522.000000	0.061174  
522.500000	0.056295  
523.000000	0.049075  
523.500000	0.047901  
524.000000	0.049681  
524.500000	0.051962  
525.000000	0.050522  
525.500000	0.045393  
526.000000	0.043075  
526.500000	0.049575  
527.000000	0.058560  
527.500000	0.065371  
528.000000	0.064469  
528.500000	0.058545  
529.000000	0.049712  
529.500000	0.043909  
530.000000	0.043000  

