PE FL                   SPECTRUM    ASCII       PEDS        1.60        
  -1
01#238.SP
02/03/22
00:02:03.00
02/03/22
00:04:18.00


550.000000
1









LS55
310.00
5.00
5.00
SCAN
1
20
100
100
0
100
0
1
0
1
7
ON
520 280 
1 0 0
#HDR
-1
-1
#GR
NM

0.00002384185791015625
0.0
340.000000
0.500000
421
8
63.444939
6.132257
#DATA
340.000000	58.286000 
340.500000	58.269204 
341.000000	58.259303 
341.500000	58.308916 
342.000000	58.515333 
342.500000	58.772454 
343.000000	58.952742 
343.500000	58.950393 
344.000000	58.840060 
344.500000	58.806386 
345.000000	58.912356 
345.500000	59.022810 
346.000000	59.034560 
346.500000	58.989939 
347.000000	59.069651 
347.500000	59.218499 
348.000000	59.304416 
348.500000	59.158196 
349.000000	58.993757 
349.500000	58.883871 
350.000000	59.033378 
350.500000	59.324848 
351.000000	59.692757 
351.500000	60.005909 
352.000000	60.253249 
352.500000	60.314416 
353.000000	60.242272 
353.500000	60.161022 
354.000000	60.262219 
354.500000	60.440416 
355.000000	60.427242 
355.500000	60.118962 
356.000000	59.807439 
356.500000	59.798825 
357.000000	60.054931 
357.500000	60.219515 
358.000000	60.010416 
358.500000	59.555106 
359.000000	59.120651 
359.500000	58.952977 
360.000000	58.917136 
360.500000	58.858689 
361.000000	58.761446 
361.500000	58.772196 
362.000000	58.800234 
362.500000	58.674901 
363.000000	58.363121 
363.500000	58.180825 
364.000000	58.189901 
364.500000	58.266439 
365.000000	58.227666 
365.500000	58.104954 
366.000000	57.949833 
366.500000	57.846022 
367.000000	57.797287 
367.500000	57.794750 
368.000000	57.771507 
368.500000	57.745250 
369.000000	57.764037 
369.500000	57.891984 
370.000000	58.000689 
370.500000	58.052613 
371.000000	57.969136 
371.500000	57.881848 
372.000000	57.890090 
372.500000	58.040590 
373.000000	58.235856 
373.500000	58.346371 
374.000000	58.415212 
374.500000	58.417871 
375.000000	58.391121 
375.500000	58.288265 
376.000000	58.236863 
376.500000	58.302840 
377.000000	58.424840 
377.500000	58.509636 
378.000000	58.501340 
378.500000	58.396545 
379.000000	58.331681 
379.500000	58.418174 
380.000000	58.681575 
380.500000	58.860446 
381.000000	58.886856 
381.500000	58.766265 
382.000000	58.840795 
382.500000	58.914598 
383.000000	59.007590 
383.500000	59.067712 
384.000000	59.271621 
384.500000	59.467295 
385.000000	59.566257 
385.500000	59.607075 
386.000000	59.678954 
386.500000	59.818984 
387.000000	59.954462 
387.500000	60.160590 
388.000000	60.354136 
388.500000	60.573356 
389.000000	60.718598 
389.500000	60.844787 
390.000000	60.933553 
390.500000	61.155166 
391.000000	61.466803 
391.500000	61.789621 
392.000000	61.908189 
392.500000	61.921772 
393.000000	61.918787 
393.500000	61.987007 
394.000000	62.061636 
394.500000	62.183151 
395.000000	62.319113 
395.500000	62.406401 
396.000000	62.524810 
396.500000	62.764969 
397.000000	63.021257 
397.500000	63.105166 
398.000000	62.992901 
398.500000	62.920946 
399.000000	63.009954 
399.500000	63.153696 
400.000000	63.162689 
400.500000	63.017545 
401.000000	62.846863 
401.500000	62.891143 
402.000000	63.106916 
402.500000	63.346106 
403.000000	63.444939 
403.500000	63.395628 
404.000000	63.299931 
404.500000	63.324022 
405.000000	63.332136 
405.500000	63.261492 
406.000000	63.175280 
406.500000	63.187113 
407.000000	63.208522 
407.500000	63.199484 
408.000000	63.240113 
408.500000	63.273136 
409.000000	63.163424 
409.500000	63.007431 
410.000000	62.963825 
410.500000	62.947628 
411.000000	62.828280 
411.500000	62.776606 
412.000000	62.765121 
412.500000	62.664143 
413.000000	62.346931 
413.500000	62.165803 
414.000000	62.162977 
414.500000	62.164696 
415.000000	62.039659 
415.500000	61.858818 
416.000000	61.725196 
416.500000	61.608598 
417.000000	61.573340 
417.500000	61.546598 
418.000000	61.467810 
418.500000	61.277454 
419.000000	61.066037 
419.500000	60.835280 
420.000000	60.567515 
420.500000	60.327681 
421.000000	60.196651 
421.500000	60.156499 
422.000000	60.095780 
422.500000	59.847045 
423.000000	59.467249 
423.500000	59.139424 
424.000000	58.978704 
424.500000	58.880189 
425.000000	58.583537 
425.500000	58.201962 
426.000000	57.761515 
426.500000	57.413219 
427.000000	57.023780 
427.500000	56.766681 
428.000000	56.531893 
428.500000	56.337348 
429.000000	56.070121 
429.500000	55.838446 
430.000000	55.575106 
430.500000	55.293416 
431.000000	54.879030 
431.500000	54.445651 
432.000000	54.078174 
432.500000	53.870992 
433.000000	53.653121 
433.500000	53.341696 
434.000000	52.857469 
434.500000	52.367303 
435.000000	51.953121 
435.500000	51.643249 
436.000000	51.366303 
436.500000	51.050143 
437.000000	50.739075 
437.500000	50.538825 
438.000000	50.333371 
438.500000	49.922984 
439.000000	49.306227 
439.500000	48.774151 
440.000000	48.434909 
440.500000	48.173674 
441.000000	47.781931 
441.500000	47.291871 
442.000000	46.767924 
442.500000	46.379257 
443.000000	46.115219 
443.500000	45.809992 
444.000000	45.356825 
444.500000	44.828840 
445.000000	44.420409 
445.500000	44.056553 
446.000000	43.617083 
446.500000	43.169121 
447.000000	42.827431 
447.500000	42.569946 
448.000000	42.206106 
448.500000	41.763537 
449.000000	41.279106 
449.500000	40.915219 
450.000000	40.518825 
450.500000	40.087401 
451.000000	39.625613 
451.500000	39.244272 
452.000000	38.847500 
452.500000	38.374863 
453.000000	37.857469 
453.500000	37.430060 
454.000000	37.035340 
454.500000	36.622856 
455.000000	36.228893 
455.500000	35.932522 
456.000000	35.661575 
456.500000	35.278810 
457.000000	34.844992 
457.500000	34.516689 
458.000000	34.277939 
458.500000	33.968522 
459.000000	33.531151 
459.500000	33.113840 
460.000000	32.755159 
460.500000	32.458939 
461.000000	32.132409 
461.500000	31.790545 
462.000000	31.411196 
462.500000	31.027522 
463.000000	30.651378 
463.500000	30.295825 
464.000000	29.936757 
464.500000	29.587643 
465.000000	29.204431 
465.500000	28.821462 
466.000000	28.535575 
466.500000	28.369575 
467.000000	28.133969 
467.500000	27.767674 
468.000000	27.388477 
468.500000	27.099659 
469.000000	26.856795 
469.500000	26.547106 
470.000000	26.218325 
470.500000	25.946651 
471.000000	25.719780 
471.500000	25.425962 
472.000000	25.015492 
472.500000	24.602257 
473.000000	24.293022 
473.500000	24.079090 
474.000000	23.874098 
474.500000	23.615719 
475.000000	23.345098 
475.500000	23.111992 
476.000000	22.879810 
476.500000	22.670378 
477.000000	22.452825 
477.500000	22.217545 
478.000000	21.956954 
478.500000	21.674666 
479.000000	21.377659 
479.500000	21.185840 
480.000000	21.000757 
480.500000	20.798106 
481.000000	20.564696 
481.500000	20.408780 
482.000000	20.286492 
482.500000	20.166015 
483.000000	19.945204 
483.500000	19.745742 
484.000000	19.531795 
484.500000	19.307045 
485.000000	19.063272 
485.500000	18.838484 
486.000000	18.636356 
486.500000	18.502825 
487.000000	18.401143 
487.500000	18.248863 
488.000000	17.992462 
488.500000	17.679583 
489.000000	17.475553 
489.500000	17.352787 
490.000000	17.290757 
490.500000	17.130378 
491.000000	16.948575 
491.500000	16.695030 
492.000000	16.523704 
492.500000	16.350212 
493.000000	16.198916 
493.500000	15.997053 
494.000000	15.786863 
494.500000	15.621727 
495.000000	15.496462 
495.500000	15.392598 
496.000000	15.253295 
496.500000	15.143219 
497.000000	15.025886 
497.500000	14.905984 
498.000000	14.673810 
498.500000	14.410500 
499.000000	14.213083 
499.500000	14.138068 
500.000000	14.091204 
500.500000	14.002030 
501.000000	13.845340 
501.500000	13.702416 
502.000000	13.571628 
502.500000	13.428590 
503.000000	13.290719 
503.500000	13.163659 
504.000000	13.073257 
504.500000	12.995143 
505.000000	12.910022 
505.500000	12.787666 
506.000000	12.635280 
506.500000	12.500545 
507.000000	12.389166 
507.500000	12.287454 
508.000000	12.129075 
508.500000	11.975151 
509.000000	11.871469 
509.500000	11.846515 
510.000000	11.811659 
510.500000	11.741712 
511.000000	11.653856 
511.500000	11.519772 
512.000000	11.347727 
512.500000	11.144424 
513.000000	11.013598 
513.500000	10.902128 
514.000000	10.799878 
514.500000	10.696939 
515.000000	10.665416 
515.500000	10.610477 
516.000000	10.511628 
516.500000	10.366204 
517.000000	10.276250 
517.500000	10.229060 
518.000000	10.201454 
518.500000	10.146757 
519.000000	10.077227 
519.500000	9.966166  
520.000000	9.812704  
520.500000	9.646969  
521.000000	9.560598  
521.500000	9.561696  
522.000000	9.541250  
522.500000	9.432931  
523.000000	9.285257  
523.500000	9.217234  
524.000000	9.196522  
524.500000	9.187219  
525.000000	9.109462  
525.500000	8.999393  
526.000000	8.888484  
526.500000	8.853901  
527.000000	8.858984  
527.500000	8.862840  
528.000000	8.855151  
528.500000	8.817045  
529.000000	8.749643  
529.500000	8.635651  
530.000000	8.567265  
530.500000	8.523265  
531.000000	8.463583  
531.500000	8.343242  
532.000000	8.199439  
532.500000	8.106621  
533.000000	8.059340  
533.500000	8.026704  
534.000000	7.946212  
534.500000	7.892863  
535.000000	7.827946  
535.500000	7.735378  
536.000000	7.552659  
536.500000	7.394462  
537.000000	7.297848  
537.500000	7.267628  
538.000000	7.235189  
538.500000	7.183628  
539.000000	7.124113  
539.500000	7.095007  
540.000000	7.085598  
540.500000	7.043977  
541.000000	6.921606  
541.500000	6.800348  
542.000000	6.730113  
542.500000	6.715143  
543.000000	6.679310  
543.500000	6.621386  
544.000000	6.525196  
544.500000	6.431545  
545.000000	6.344272  
545.500000	6.275651  
546.000000	6.273098  
546.500000	6.292840  
547.000000	6.298280  
547.500000	6.247166  
548.000000	6.173833  
548.500000	6.132257  
549.000000	6.142462  
549.500000	6.172393  
550.000000	6.218999  

