PE FL                   SPECTRUM    ASCII       PEDS        1.60        
  -1
01#242.SP
02/03/22
00:13:07.00
02/03/22
00:14:43.00


400.000000
1









LS55
450.00
5.00
5.00
SCAN
1
20
100
100
0
100
0
0
0
1
7
ON
370 350 
1 0 0
#HDR
-1
-1
#GR
NM

0.00002384185791015625
0.0
250.000000
0.500000
301
8
48.954628
17.705000
#DATA
250.000000	17.705000 
250.500000	17.873333 
251.000000	18.075469 
251.500000	18.267022 
252.000000	18.393287 
252.500000	18.530022 
253.000000	18.776946 
253.500000	19.172310 
254.000000	19.503674 
254.500000	19.674106 
255.000000	19.696333 
255.500000	19.794242 
256.000000	19.987196 
256.500000	20.220136 
257.000000	20.357871 
257.500000	20.424962 
258.000000	20.538757 
258.500000	20.740469 
259.000000	21.045136 
259.500000	21.429250 
260.000000	21.843484 
260.500000	22.147393 
261.000000	22.417234 
261.500000	22.740992 
262.000000	23.136704 
262.500000	23.527696 
263.000000	23.946939 
263.500000	24.301553 
264.000000	24.524151 
264.500000	24.604250 
265.000000	24.843424 
265.500000	25.226787 
266.000000	25.576553 
266.500000	25.785734 
267.000000	25.948734 
267.500000	26.161378 
268.000000	26.338181 
268.500000	26.460772 
269.000000	26.581060 
269.500000	26.809537 
270.000000	27.109537 
270.500000	27.348204 
271.000000	27.443234 
271.500000	27.498439 
272.000000	27.684863 
272.500000	27.885196 
273.000000	28.008060 
273.500000	28.046250 
274.000000	28.140439 
274.500000	28.270583 
275.000000	28.293598 
275.500000	28.158681 
276.000000	27.997659 
276.500000	27.866227 
277.000000	27.808196 
277.500000	27.746734 
278.000000	27.622098 
278.500000	27.392303 
279.000000	27.221030 
279.500000	27.189000 
280.000000	27.221189 
280.500000	27.188734 
281.000000	27.193181 
281.500000	27.282636 
282.000000	27.260719 
282.500000	27.005333 
283.000000	26.764909 
283.500000	26.727560 
284.000000	26.710189 
284.500000	26.496151 
285.000000	26.179704 
285.500000	25.923704 
286.000000	25.714954 
286.500000	25.427174 
287.000000	25.102060 
287.500000	24.819333 
288.000000	24.539734 
288.500000	24.147318 
289.000000	23.703007 
289.500000	23.310295 
290.000000	23.030553 
290.500000	22.752886 
291.000000	22.424613 
291.500000	21.978659 
292.000000	21.456000 
292.500000	20.877227 
293.000000	20.323250 
293.500000	19.851151 
294.000000	19.547901 
294.500000	19.340757 
295.000000	19.114689 
295.500000	18.736878 
296.000000	18.341651 
296.500000	18.033500 
297.000000	17.838636 
297.500000	17.779628 
298.000000	17.940075 
298.500000	18.318659 
299.000000	18.812000 
299.500000	19.460810 
300.000000	20.295901 
300.500000	21.367878 
301.000000	22.544712 
301.500000	23.877681 
302.000000	25.351696 
302.500000	26.963583 
303.000000	28.524439 
303.500000	30.030810 
304.000000	31.428992 
304.500000	32.851083 
305.000000	34.285848 
305.500000	35.603992 
306.000000	36.623121 
306.500000	37.344992 
307.000000	37.982946 
307.500000	38.566469 
308.000000	39.027075 
308.500000	39.330871 
309.000000	39.573863 
309.500000	39.797939 
310.000000	39.921886 
310.500000	39.963250 
311.000000	39.872250 
311.500000	39.729522 
312.000000	39.509719 
312.500000	39.314136 
313.000000	39.128318 
313.500000	38.877121 
314.000000	38.536075 
314.500000	38.092893 
315.000000	37.723924 
315.500000	37.409727 
316.000000	37.149537 
316.500000	36.803946 
317.000000	36.440969 
317.500000	35.954037 
318.000000	35.434136 
318.500000	34.997303 
319.000000	34.762386 
319.500000	34.493575 
320.000000	34.073689 
320.500000	33.601484 
321.000000	33.335545 
321.500000	33.159121 
322.000000	32.891386 
322.500000	32.457734 
323.000000	32.089924 
323.500000	31.777954 
324.000000	31.524446 
324.500000	31.219128 
325.000000	30.970090 
325.500000	30.755196 
326.000000	30.617787 
326.500000	30.524992 
327.000000	30.462750 
327.500000	30.317901 
328.000000	30.132227 
328.500000	29.975219 
329.000000	29.891795 
329.500000	29.749287 
330.000000	29.522075 
330.500000	29.332189 
331.000000	29.343242 
331.500000	29.422318 
332.000000	29.471931 
332.500000	29.442742 
333.000000	29.469787 
333.500000	29.533765 
334.000000	29.647977 
334.500000	29.773954 
335.000000	29.940742 
335.500000	30.062060 
336.000000	30.128810 
336.500000	30.126393 
337.000000	30.148083 
337.500000	30.208606 
338.000000	30.358075 
338.500000	30.586909 
339.000000	30.926446 
339.500000	31.241848 
340.000000	31.407113 
340.500000	31.406643 
341.000000	31.436681 
341.500000	31.561507 
342.000000	31.722136 
342.500000	31.896606 
343.000000	32.111522 
343.500000	32.358840 
344.000000	32.521530 
344.500000	32.621613 
345.000000	32.765893 
345.500000	33.025075 
346.000000	33.300121 
346.500000	33.474553 
347.000000	33.614227 
347.500000	33.910265 
348.000000	34.296356 
348.500000	34.656871 
349.000000	34.871765 
349.500000	35.036742 
350.000000	35.234083 
350.500000	35.517333 
351.000000	35.795053 
351.500000	36.022015 
352.000000	36.212666 
352.500000	36.432780 
353.000000	36.747219 
353.500000	37.079340 
354.000000	37.415462 
354.500000	37.719795 
355.000000	38.053409 
355.500000	38.435757 
356.000000	38.863121 
356.500000	39.193159 
357.000000	39.436409 
357.500000	39.678674 
358.000000	40.074340 
358.500000	40.550121 
359.000000	40.973295 
359.500000	41.268159 
360.000000	41.518954 
360.500000	41.803696 
361.000000	42.157727 
361.500000	42.518939 
362.000000	42.763681 
362.500000	42.844371 
363.000000	43.005856 
363.500000	43.316037 
364.000000	43.769500 
364.500000	44.086606 
365.000000	44.341234 
365.500000	44.538128 
366.000000	44.828250 
366.500000	45.170583 
367.000000	45.568409 
367.500000	45.868098 
368.000000	46.071174 
368.500000	46.322189 
369.000000	46.590174 
369.500000	46.806257 
370.000000	46.926719 
370.500000	47.151749 
371.000000	47.426340 
371.500000	47.769136 
372.000000	48.050500 
372.500000	48.337757 
373.000000	48.514356 
373.500000	48.627219 
374.000000	48.718181 
374.500000	48.876772 
375.000000	48.954628 
375.500000	48.930212 
376.000000	48.812643 
376.500000	48.699742 
377.000000	48.533356 
377.500000	48.363189 
378.000000	48.196477 
378.500000	48.125401 
379.000000	47.919151 
379.500000	47.620689 
380.000000	47.313196 
380.500000	47.198462 
381.000000	47.092227 
381.500000	46.934659 
382.000000	46.703840 
382.500000	46.561772 
383.000000	46.338424 
383.500000	46.033257 
384.000000	45.689234 
384.500000	45.555750 
385.000000	45.481204 
385.500000	45.413469 
386.000000	45.140113 
386.500000	44.893583 
387.000000	44.720992 
387.500000	44.655159 
388.000000	44.537212 
388.500000	44.359719 
389.000000	44.149416 
389.500000	44.037674 
390.000000	43.970287 
390.500000	43.828636 
391.000000	43.640871 
391.500000	43.541068 
392.000000	43.522916 
392.500000	43.519772 
393.000000	43.346280 
393.500000	43.152234 
394.000000	42.909325 
394.500000	42.640545 
395.000000	42.299909 
395.500000	42.024795 
396.000000	41.658901 
396.500000	41.166287 
397.000000	40.551901 
397.500000	39.980984 
398.000000	39.461984 
398.500000	38.905469 
399.000000	38.244113 
399.500000	37.482863 
400.000000	36.646000 

