PE FL                   SPECTRUM    ASCII       PEDS        1.60        
  -1
01#237.SP
02/03/21
23:58:40.00
02/03/22
00:01:02.00


520.000000
1









LS55
280.00
5.00
5.00
SCAN
1
20
100
100
0
100
0
1
0
1
7
ON
520 280 
1 0 0
#HDR
-1
-1
#GR
NM

0.00002384185791015625
0.0
300.000000
0.500000
441
8
31.764553
0.771999
#DATA
300.000000	0.771999  
300.500000	1.077295  
301.000000	1.389931  
301.500000	1.769484  
302.000000	2.255272  
302.500000	2.855424  
303.000000	3.556060  
303.500000	4.341378  
304.000000	5.187575  
304.500000	6.048863  
305.000000	6.979030  
305.500000	8.015674  
306.000000	9.151757  
306.500000	10.227439 
307.000000	11.208303 
307.500000	12.102659 
308.000000	12.961590 
308.500000	13.778113 
309.000000	14.578015 
309.500000	15.359159 
310.000000	16.055734 
310.500000	16.560583 
311.000000	16.962371 
311.500000	17.351393 
312.000000	17.715295 
312.500000	17.933409 
313.000000	18.005750 
313.500000	18.041954 
314.000000	18.056356 
314.500000	18.045772 
315.000000	18.004030 
315.500000	18.051871 
316.000000	18.099340 
316.500000	18.140378 
317.000000	18.173727 
317.500000	18.239719 
318.000000	18.256386 
318.500000	18.186287 
319.000000	18.088909 
319.500000	17.988946 
320.000000	17.880621 
320.500000	17.773310 
321.000000	17.738250 
321.500000	17.717962 
322.000000	17.647992 
322.500000	17.496878 
323.000000	17.346143 
323.500000	17.155098 
324.000000	17.013825 
324.500000	16.927537 
325.000000	16.970462 
325.500000	16.970984 
326.000000	16.894568 
326.500000	16.755818 
327.000000	16.692265 
327.500000	16.617280 
328.000000	16.465250 
328.500000	16.203537 
329.000000	16.038818 
329.500000	15.943833 
330.000000	15.911643 
330.500000	15.831568 
331.000000	15.815151 
331.500000	15.774265 
332.000000	15.719325 
332.500000	15.577045 
333.000000	15.504909 
333.500000	15.444742 
334.000000	15.344886 
334.500000	15.152492 
335.000000	15.044128 
335.500000	15.029507 
336.000000	15.091537 
336.500000	15.066696 
337.000000	15.003909 
337.500000	14.894250 
338.000000	14.771560 
338.500000	14.654696 
339.000000	14.602674 
339.500000	14.577030 
340.000000	14.499643 
340.500000	14.418242 
341.000000	14.380431 
341.500000	14.399893 
342.000000	14.382666 
342.500000	14.314030 
343.000000	14.251007 
343.500000	14.235393 
344.000000	14.261136 
344.500000	14.314212 
345.000000	14.331568 
345.500000	14.236348 
346.000000	14.080643 
346.500000	13.921916 
347.000000	13.852303 
347.500000	13.810363 
348.000000	13.806727 
348.500000	13.822871 
349.000000	13.915992 
349.500000	13.996628 
350.000000	14.087053 
350.500000	14.104681 
351.000000	14.074643 
351.500000	13.998371 
352.000000	13.988053 
352.500000	14.072174 
353.000000	14.228613 
353.500000	14.339462 
354.000000	14.389893 
354.500000	14.415219 
355.000000	14.479810 
355.500000	14.585840 
356.000000	14.613303 
356.500000	14.525181 
357.000000	14.436045 
357.500000	14.515242 
358.000000	14.679719 
358.500000	14.817484 
359.000000	14.827257 
359.500000	14.837765 
360.000000	14.854803 
360.500000	14.923128 
361.000000	14.991795 
361.500000	15.144772 
362.000000	15.311000 
362.500000	15.427598 
363.000000	15.479962 
363.500000	15.521757 
364.000000	15.588015 
364.500000	15.665386 
365.000000	15.753287 
365.500000	15.866863 
366.000000	16.011022 
366.500000	16.148954 
367.000000	16.265303 
367.500000	16.360901 
368.000000	16.413833 
368.500000	16.564522 
369.000000	16.769045 
369.500000	16.933530 
370.000000	16.942166 
370.500000	16.962409 
371.000000	17.068462 
371.500000	17.259909 
372.000000	17.442825 
372.500000	17.601484 
373.000000	17.738621 
373.500000	17.783424 
374.000000	17.870318 
374.500000	18.047787 
375.000000	18.310962 
375.500000	18.544007 
376.000000	18.720295 
376.500000	18.885765 
377.000000	19.002954 
377.500000	19.047742 
378.000000	19.075250 
378.500000	19.218303 
379.000000	19.400212 
379.500000	19.511469 
380.000000	19.570469 
380.500000	19.696492 
381.000000	19.984560 
381.500000	20.271984 
382.000000	20.418340 
382.500000	20.493666 
383.000000	20.648962 
383.500000	20.909265 
384.000000	21.146007 
384.500000	21.305681 
385.000000	21.419469 
385.500000	21.647674 
386.000000	21.869121 
386.500000	22.064356 
387.000000	22.071818 
387.500000	22.099075 
388.000000	22.157636 
388.500000	22.357333 
389.000000	22.559083 
389.500000	22.792250 
390.000000	23.031871 
390.500000	23.231136 
391.000000	23.257272 
391.500000	23.177242 
392.000000	23.266371 
392.500000	23.657666 
393.000000	24.122424 
393.500000	24.337924 
394.000000	24.280530 
394.500000	24.248643 
395.000000	24.438030 
395.500000	24.729856 
396.000000	25.008818 
396.500000	25.166553 
397.000000	25.312734 
397.500000	25.360386 
398.000000	25.396825 
398.500000	25.421681 
399.000000	25.642954 
399.500000	25.950333 
400.000000	26.198969 
400.500000	26.308507 
401.000000	26.405287 
401.500000	26.540348 
402.000000	26.641462 
402.500000	26.684333 
403.000000	26.715856 
403.500000	26.871333 
404.000000	27.057825 
404.500000	27.252371 
405.000000	27.400803 
405.500000	27.528159 
406.000000	27.650954 
406.500000	27.742446 
407.000000	27.819810 
407.500000	27.954757 
408.000000	28.140333 
408.500000	28.336174 
409.000000	28.521757 
409.500000	28.759893 
410.000000	28.975772 
410.500000	29.110181 
411.000000	29.166825 
411.500000	29.248833 
412.000000	29.420787 
412.500000	29.567393 
413.000000	29.635666 
413.500000	29.673659 
414.000000	29.775386 
414.500000	29.929939 
415.000000	30.101469 
415.500000	30.265431 
416.000000	30.384189 
416.500000	30.473166 
417.000000	30.517446 
417.500000	30.631583 
418.000000	30.836893 
418.500000	31.013121 
419.000000	31.053545 
419.500000	30.994946 
420.000000	30.953856 
420.500000	31.095242 
421.000000	31.273537 
421.500000	31.380522 
422.000000	31.342757 
422.500000	31.356659 
423.000000	31.392886 
423.500000	31.455787 
424.000000	31.422053 
424.500000	31.459696 
425.000000	31.558401 
425.500000	31.729242 
426.000000	31.764553 
426.500000	31.688818 
427.000000	31.588946 
427.500000	31.613628 
428.000000	31.719803 
428.500000	31.696568 
429.000000	31.613810 
429.500000	31.536037 
430.000000	31.633159 
430.500000	31.655515 
431.000000	31.589689 
431.500000	31.463636 
432.000000	31.521689 
432.500000	31.578159 
433.000000	31.515500 
433.500000	31.301363 
434.000000	31.159931 
434.500000	31.143537 
435.000000	31.232128 
435.500000	31.240340 
436.000000	31.189613 
436.500000	31.116757 
437.000000	31.083265 
437.500000	31.028121 
438.000000	30.919946 
438.500000	30.805598 
439.000000	30.657249 
439.500000	30.441522 
440.000000	30.195780 
440.500000	30.086848 
441.000000	30.087045 
441.500000	30.062583 
442.000000	29.909303 
442.500000	29.767780 
443.000000	29.739295 
443.500000	29.702681 
444.000000	29.541886 
444.500000	29.353386 
445.000000	29.297772 
445.500000	29.225962 
446.000000	29.010977 
446.500000	28.745196 
447.000000	28.599363 
447.500000	28.528628 
448.000000	28.472712 
448.500000	28.401030 
449.000000	28.267113 
449.500000	28.092969 
450.000000	28.016719 
450.500000	27.950757 
451.000000	27.731583 
451.500000	27.334484 
452.000000	27.063530 
452.500000	26.929212 
453.000000	26.909606 
453.500000	26.822515 
454.000000	26.682136 
454.500000	26.368128 
455.000000	26.075696 
455.500000	25.864553 
456.000000	25.738537 
456.500000	25.588621 
457.000000	25.417363 
457.500000	25.298621 
458.000000	25.175590 
458.500000	25.041765 
459.000000	24.782113 
459.500000	24.539234 
460.000000	24.275659 
460.500000	24.156840 
461.000000	24.005015 
461.500000	23.900795 
462.000000	23.720090 
462.500000	23.597621 
463.000000	23.378386 
463.500000	23.146454 
464.000000	22.807166 
464.500000	22.563189 
465.000000	22.478068 
465.500000	22.461250 
466.000000	22.291348 
466.500000	21.962204 
467.000000	21.647704 
467.500000	21.481674 
468.000000	21.430575 
468.500000	21.316053 
469.000000	21.148840 
469.500000	20.917931 
470.000000	20.701871 
470.500000	20.497507 
471.000000	20.335727 
471.500000	20.228212 
472.000000	20.096856 
472.500000	19.846454 
473.000000	19.589992 
473.500000	19.482969 
474.000000	19.443606 
474.500000	19.344068 
475.000000	19.149636 
475.500000	18.984909 
476.000000	18.857825 
476.500000	18.708000 
477.000000	18.538878 
477.500000	18.384159 
478.000000	18.261765 
478.500000	18.174015 
479.000000	18.064666 
479.500000	17.955575 
480.000000	17.805712 
480.500000	17.653856 
481.000000	17.514151 
481.500000	17.439598 
482.000000	17.365060 
482.500000	17.239712 
483.000000	17.071598 
483.500000	16.928909 
484.000000	16.841787 
484.500000	16.754750 
485.000000	16.655310 
485.500000	16.422356 
486.000000	16.180651 
486.500000	15.986446 
487.000000	15.910659 
487.500000	15.797113 
488.000000	15.679075 
488.500000	15.561409 
489.000000	15.456848 
489.500000	15.252166 
490.000000	15.023598 
490.500000	14.847106 
491.000000	14.705583 
491.500000	14.569704 
492.000000	14.428348 
492.500000	14.319356 
493.000000	14.237227 
493.500000	14.140560 
494.000000	14.003643 
494.500000	13.899000 
495.000000	13.857992 
495.500000	13.830446 
496.000000	13.724840 
496.500000	13.536363 
497.000000	13.385295 
497.500000	13.305507 
498.000000	13.306265 
498.500000	13.281295 
499.000000	13.179272 
499.500000	12.983166 
500.000000	12.806060 
500.500000	12.698106 
501.000000	12.681060 
501.500000	12.655265 
502.000000	12.517628 
502.500000	12.330590 
503.000000	12.180909 
503.500000	12.126901 
504.000000	12.096515 
504.500000	12.008181 
505.000000	11.835477 
505.500000	11.645560 
506.000000	11.551083 
506.500000	11.546121 
507.000000	11.536507 
507.500000	11.430227 
508.000000	11.285151 
508.500000	11.203757 
509.000000	11.142068 
509.500000	11.062234 
510.000000	10.951242 
510.500000	10.896704 
511.000000	10.839090 
511.500000	10.813522 
512.000000	10.782446 
512.500000	10.731446 
513.000000	10.587287 
513.500000	10.362439 
514.000000	10.208446 
514.500000	10.214757 
515.000000	10.296719 
515.500000	10.271825 
516.000000	10.126916 
516.500000	9.937500  
517.000000	9.823469  
517.500000	9.732143  
518.000000	9.661393  
518.500000	9.612621  
519.000000	9.563507  
519.500000	9.378250  
520.000000	9.039999  

