PE FL                   SPECTRUM    ASCII       PEDS        1.60        
  -1
01#240.SP
02/03/22
00:08:51.00
02/03/22
00:10:30.00


400.000000
1









LS55
420.00
5.00
5.00
SCAN
1
20
100
100
0
100
0
0
0
1
7
ON
600 365 
1 0 0
#HDR
-1
-1
#GR
NM

0.00002384185791015625
0.0
250.000000
0.500000
301
8
60.504992
18.801000
#DATA
250.000000	18.801000 
250.500000	19.322295 
251.000000	19.693280 
251.500000	19.943181 
252.000000	20.177742 
252.500000	20.428090 
253.000000	20.671545 
253.500000	20.941189 
254.000000	21.182371 
254.500000	21.344704 
255.000000	21.456757 
255.500000	21.583810 
256.000000	21.705159 
256.500000	21.856333 
257.000000	22.106810 
257.500000	22.423219 
258.000000	22.723765 
258.500000	22.944037 
259.000000	23.161090 
259.500000	23.452143 
260.000000	23.873333 
260.500000	24.262856 
261.000000	24.555598 
261.500000	24.795863 
262.000000	25.192181 
262.500000	25.735272 
263.000000	26.237916 
263.500000	26.551098 
264.000000	26.701704 
264.500000	26.924287 
265.000000	27.295704 
265.500000	27.781613 
266.000000	28.103590 
266.500000	28.409272 
267.000000	28.760931 
267.500000	29.157795 
268.000000	29.336568 
268.500000	29.436015 
269.000000	29.646068 
269.500000	30.012462 
270.000000	30.290431 
270.500000	30.464969 
271.000000	30.687386 
271.500000	30.905848 
272.000000	30.996666 
272.500000	30.962803 
273.000000	31.066681 
273.500000	31.289901 
274.000000	31.520530 
274.500000	31.607121 
275.000000	31.619030 
275.500000	31.493128 
276.000000	31.349598 
276.500000	31.264621 
277.000000	31.301750 
277.500000	31.325454 
278.000000	31.416166 
278.500000	31.489840 
279.000000	31.380848 
279.500000	31.073909 
280.000000	30.821007 
280.500000	30.676060 
281.000000	30.508098 
281.500000	30.303636 
282.000000	30.206333 
282.500000	30.264628 
283.000000	30.317909 
283.500000	30.166015 
284.000000	29.844083 
284.500000	29.424696 
285.000000	29.153689 
285.500000	28.965840 
286.000000	28.713318 
286.500000	28.310037 
287.000000	27.853931 
287.500000	27.382787 
288.000000	26.866621 
288.500000	26.313515 
289.000000	25.745212 
289.500000	25.127015 
290.000000	24.542075 
290.500000	24.066560 
291.000000	23.708984 
291.500000	23.303636 
292.000000	22.888340 
292.500000	22.505765 
293.000000	22.237333 
293.500000	22.013840 
294.000000	21.821681 
294.500000	21.683424 
295.000000	21.676651 
295.500000	21.748280 
296.000000	21.885977 
296.500000	22.042325 
297.000000	22.347068 
297.500000	22.940106 
298.000000	23.850250 
298.500000	24.890810 
299.000000	26.098075 
299.500000	27.630954 
300.000000	29.612015 
300.500000	31.847742 
301.000000	34.108742 
301.500000	36.384734 
302.000000	38.773439 
302.500000	41.347651 
303.000000	43.892265 
303.500000	46.350151 
304.000000	48.648621 
304.500000	50.897568 
305.000000	52.944090 
305.500000	54.630924 
306.000000	55.952401 
306.500000	57.103659 
307.000000	58.256409 
307.500000	59.223492 
308.000000	59.940719 
308.500000	60.255825 
309.000000	60.412704 
309.500000	60.467545 
310.000000	60.504992 
310.500000	60.321363 
311.000000	59.851598 
311.500000	59.126416 
312.000000	58.434151 
312.500000	57.851734 
313.000000	57.326606 
313.500000	56.698378 
314.000000	55.951848 
314.500000	55.175787 
315.000000	54.411446 
315.500000	53.705568 
316.000000	53.096954 
316.500000	52.561424 
317.000000	51.927712 
317.500000	51.193977 
318.000000	50.453825 
318.500000	49.821651 
319.000000	49.204310 
319.500000	48.616416 
320.000000	48.153712 
320.500000	47.848598 
321.000000	47.491628 
321.500000	46.951878 
322.000000	46.306075 
322.500000	45.811643 
323.000000	45.475090 
323.500000	45.285893 
324.000000	45.112719 
324.500000	44.968477 
325.000000	44.806969 
325.500000	44.602159 
326.000000	44.360500 
326.500000	44.163651 
327.000000	44.012106 
327.500000	43.893090 
328.000000	43.842121 
328.500000	43.882068 
329.000000	43.871431 
329.500000	43.813628 
330.000000	43.735000 
330.500000	43.772674 
331.000000	43.801939 
331.500000	43.842628 
332.000000	43.944681 
332.500000	44.119022 
333.000000	44.229818 
333.500000	44.181984 
334.000000	44.174121 
334.500000	44.299075 
335.000000	44.593295 
335.500000	44.820863 
336.000000	44.886340 
336.500000	44.822681 
337.000000	44.789454 
337.500000	44.907636 
338.000000	45.122287 
338.500000	45.402984 
339.000000	45.621083 
339.500000	45.772234 
340.000000	45.766727 
340.500000	45.778666 
341.000000	45.833803 
341.500000	46.023227 
342.000000	46.210984 
342.500000	46.372484 
343.000000	46.517537 
343.500000	46.678772 
344.000000	46.850787 
344.500000	47.003477 
345.000000	47.121348 
345.500000	47.158454 
346.000000	47.276962 
346.500000	47.523037 
347.000000	47.899893 
347.500000	48.239106 
348.000000	48.339196 
348.500000	48.294999 
349.000000	48.289583 
349.500000	48.543984 
350.000000	48.897356 
350.500000	49.186598 
351.000000	49.298681 
351.500000	49.301295 
352.000000	49.297348 
352.500000	49.362318 
353.000000	49.529060 
353.500000	49.645999 
354.000000	49.769962 
354.500000	49.872083 
355.000000	50.046143 
355.500000	50.167833 
356.000000	50.303143 
356.500000	50.451659 
357.000000	50.648969 
357.500000	50.845780 
358.000000	51.088969 
358.500000	51.299090 
359.000000	51.410924 
359.500000	51.464121 
360.000000	51.493590 
360.500000	51.538977 
361.000000	51.583030 
361.500000	51.740500 
362.000000	51.985924 
362.500000	52.318015 
363.000000	52.578106 
363.500000	52.764416 
364.000000	52.824537 
364.500000	52.833303 
365.000000	52.803000 
365.500000	52.828469 
366.000000	52.892401 
366.500000	53.041863 
367.000000	53.212651 
367.500000	53.329886 
368.000000	53.410643 
368.500000	53.476310 
369.000000	53.475878 
369.500000	53.471409 
370.000000	53.466636 
370.500000	53.524219 
371.000000	53.605113 
371.500000	53.726954 
372.000000	53.753810 
372.500000	53.593022 
373.000000	53.280045 
373.500000	53.018969 
374.000000	52.856113 
374.500000	52.644901 
375.000000	52.345977 
375.500000	52.009151 
376.000000	51.722484 
376.500000	51.405083 
377.000000	51.055151 
377.500000	50.722295 
378.000000	50.440454 
378.500000	50.138257 
379.000000	49.797128 
379.500000	49.445348 
380.000000	49.169803 
380.500000	48.825621 
381.000000	48.502431 
381.500000	48.159613 
382.000000	47.825219 
382.500000	47.422303 
383.000000	47.097863 
383.500000	46.864757 
384.000000	46.642219 
384.500000	46.386712 
385.000000	46.168227 
385.500000	46.005242 
386.000000	45.675689 
386.500000	45.332037 
387.000000	45.042537 
387.500000	44.871659 
388.000000	44.634628 
388.500000	44.354840 
389.000000	44.091871 
389.500000	43.943560 
390.000000	43.777310 
390.500000	43.597356 
391.000000	43.305454 
391.500000	42.969613 
392.000000	42.717643 
392.500000	42.565484 
393.000000	42.343507 
393.500000	41.956106 
394.000000	41.552378 
394.500000	41.251787 
395.000000	40.986500 
395.500000	40.517098 
396.000000	39.963363 
396.500000	39.450242 
397.000000	39.047795 
397.500000	38.587863 
398.000000	38.083174 
398.500000	37.571462 
399.000000	37.142954 
399.500000	36.743310 
400.000000	36.363999 

