PE FL                   SPECTRUM    ASCII       PEDS        1.60        
  -1
01#243.SP
02/03/22
00:15:10.00
02/03/22
00:16:53.00


450.000000
1









LS55
490.00
5.00
5.00
SCAN
1
20
100
100
0
100
0
0
0
1
7
ON
450 400 
1 0 0
#HDR
-1
-1
#GR
NM

0.00002384185791015625
0.0
300.000000
0.500000
301
8
21.049113
6.900227
#DATA
300.000000	9.765999  
300.500000	9.775068  
301.000000	10.003924 
301.500000	10.424234 
302.000000	10.920878 
302.500000	11.501606 
303.000000	12.169969 
303.500000	12.782621 
304.000000	13.303795 
304.500000	13.832166 
305.000000	14.454106 
305.500000	15.014060 
306.000000	15.399007 
306.500000	15.608969 
307.000000	15.815681 
307.500000	16.072795 
308.000000	16.426500 
308.500000	16.758674 
309.000000	16.969462 
309.500000	17.000257 
310.000000	16.949946 
310.500000	16.990719 
311.000000	17.116674 
311.500000	17.212924 
312.000000	17.198886 
312.500000	17.107007 
313.000000	16.977462 
313.500000	16.904818 
314.000000	16.904780 
314.500000	16.952560 
315.000000	16.914537 
315.500000	16.851393 
316.000000	16.786159 
316.500000	16.796659 
317.000000	16.714469 
317.500000	16.618704 
318.000000	16.514492 
318.500000	16.479462 
319.000000	16.330568 
319.500000	16.123159 
320.000000	15.893386 
320.500000	15.760666 
321.000000	15.641795 
321.500000	15.524704 
322.000000	15.419613 
322.500000	15.327196 
323.000000	15.234848 
323.500000	15.091530 
324.000000	14.937454 
324.500000	14.735189 
325.000000	14.600340 
325.500000	14.527780 
326.000000	14.520371 
326.500000	14.438553 
327.000000	14.328984 
327.500000	14.223939 
328.000000	14.179484 
328.500000	14.121954 
329.000000	14.057212 
329.500000	13.971742 
330.000000	13.848416 
330.500000	13.719909 
331.000000	13.655037 
331.500000	13.683045 
332.000000	13.736598 
332.500000	13.767803 
333.000000	13.734106 
333.500000	13.692848 
334.000000	13.619159 
334.500000	13.553310 
335.000000	13.495681 
335.500000	13.535689 
336.000000	13.669250 
336.500000	13.804833 
337.000000	13.812787 
337.500000	13.734325 
338.000000	13.711363 
338.500000	13.746265 
339.000000	13.806909 
339.500000	13.836409 
340.000000	13.893022 
340.500000	13.954151 
341.000000	14.038939 
341.500000	14.081977 
342.000000	14.088742 
342.500000	14.134712 
343.000000	14.237681 
343.500000	14.364007 
344.000000	14.383840 
344.500000	14.379537 
345.000000	14.402689 
345.500000	14.503378 
346.000000	14.574257 
346.500000	14.663628 
347.000000	14.712401 
347.500000	14.776000 
348.000000	14.903962 
348.500000	15.074037 
349.000000	15.208984 
349.500000	15.261075 
350.000000	15.350712 
350.500000	15.494787 
351.000000	15.649712 
351.500000	15.708765 
352.000000	15.813287 
352.500000	15.911295 
353.000000	16.011553 
353.500000	16.077954 
354.000000	16.182068 
354.500000	16.323651 
355.000000	16.470651 
355.500000	16.605696 
356.000000	16.749075 
356.500000	16.975181 
357.000000	17.238250 
357.500000	17.529393 
358.000000	17.750159 
358.500000	17.967946 
359.000000	18.217075 
359.500000	18.447507 
360.000000	18.626621 
360.500000	18.719113 
361.000000	18.835931 
361.500000	18.970151 
362.000000	19.143962 
362.500000	19.266719 
363.000000	19.371000 
363.500000	19.411121 
364.000000	19.491166 
364.500000	19.554613 
365.000000	19.588901 
365.500000	19.561280 
366.000000	19.573893 
366.500000	19.634075 
367.000000	19.766901 
367.500000	19.894507 
368.000000	19.992886 
368.500000	20.048196 
369.000000	20.077151 
369.500000	20.153386 
370.000000	20.279553 
370.500000	20.441015 
371.000000	20.609696 
371.500000	20.700060 
372.000000	20.741878 
372.500000	20.804151 
373.000000	20.954136 
373.500000	21.025984 
374.000000	21.021590 
374.500000	20.946886 
375.000000	20.942560 
375.500000	20.920780 
376.000000	20.935757 
376.500000	20.939969 
377.000000	21.007750 
377.500000	21.022704 
378.000000	21.049113 
378.500000	21.028469 
379.000000	21.003500 
379.500000	20.911757 
380.000000	20.761810 
380.500000	20.638727 
381.000000	20.599977 
381.500000	20.634401 
382.000000	20.600439 
382.500000	20.539568 
383.000000	20.480886 
383.500000	20.478696 
384.000000	20.421810 
384.500000	20.327196 
385.000000	20.226257 
385.500000	20.151265 
386.000000	20.056878 
386.500000	19.969363 
387.000000	19.903295 
387.500000	19.852000 
388.000000	19.766121 
388.500000	19.683590 
389.000000	19.626469 
389.500000	19.574946 
390.000000	19.495401 
390.500000	19.384795 
391.000000	19.268734 
391.500000	19.166015 
392.000000	19.084204 
392.500000	19.044606 
393.000000	19.021825 
393.500000	18.977500 
394.000000	18.845492 
394.500000	18.687924 
395.000000	18.593484 
395.500000	18.596136 
396.000000	18.552833 
396.500000	18.426416 
397.000000	18.222553 
397.500000	18.021295 
398.000000	17.819363 
398.500000	17.702128 
399.000000	17.599977 
399.500000	17.440810 
400.000000	17.159795 
400.500000	16.897416 
401.000000	16.737590 
401.500000	16.607371 
402.000000	16.437303 
402.500000	16.187469 
403.000000	15.937553 
403.500000	15.640878 
404.000000	15.391674 
404.500000	15.208000 
405.000000	15.138015 
405.500000	15.047333 
406.000000	14.902583 
406.500000	14.708878 
407.000000	14.533734 
407.500000	14.333712 
408.000000	14.079681 
408.500000	13.816106 
409.000000	13.615606 
409.500000	13.508659 
410.000000	13.422954 
410.500000	13.338704 
411.000000	13.214484 
411.500000	13.044098 
412.000000	12.814583 
412.500000	12.572590 
413.000000	12.374174 
413.500000	12.208325 
414.000000	12.069075 
414.500000	11.882689 
415.000000	11.719992 
415.500000	11.597909 
416.000000	11.523083 
416.500000	11.420287 
417.000000	11.273007 
417.500000	11.155848 
418.000000	11.124818 
418.500000	11.160651 
419.000000	11.151818 
419.500000	11.088212 
420.000000	10.966325 
420.500000	10.861500 
421.000000	10.777590 
421.500000	10.729901 
422.000000	10.683000 
422.500000	10.660446 
423.000000	10.610113 
423.500000	10.563636 
424.000000	10.541765 
424.500000	10.599439 
425.000000	10.639750 
425.500000	10.620181 
426.000000	10.523954 
426.500000	10.444159 
427.000000	10.368265 
427.500000	10.295454 
428.000000	10.202219 
428.500000	10.170189 
429.000000	10.126992 
429.500000	10.061128 
430.000000	9.933621  
430.500000	9.844249  
431.000000	9.753098  
431.500000	9.664000  
432.000000	9.538659  
432.500000	9.454689  
433.000000	9.390651  
433.500000	9.310272  
434.000000	9.217060  
434.500000	9.115553  
435.000000	9.013795  
435.500000	8.874613  
436.000000	8.784909  
436.500000	8.708674  
437.000000	8.641674  
437.500000	8.517659  
438.000000	8.418295  
438.500000	8.336219  
439.000000	8.278136  
439.500000	8.202333  
440.000000	8.116477  
440.500000	8.030303  
441.000000	7.956053  
441.500000	7.871386  
442.000000	7.772181  
442.500000	7.641393  
443.000000	7.544583  
443.500000	7.482386  
444.000000	7.446386  
444.500000	7.371787  
445.000000	7.293068  
445.500000	7.197878  
446.000000	7.103280  
446.500000	7.034189  
447.000000	7.006212  
447.500000	7.029159  
448.000000	7.026590  
448.500000	6.983030  
449.000000	6.913272  
449.500000	6.900227  
450.000000	6.948000  

