PE FL                   SPECTRUM    ASCII       PEDS        1.60        
  -1
01#239.SP
02/03/22
00:05:50.00
02/03/22
00:08:05.00


600.000000
1









LS55
365.00
5.00
5.00
SCAN
1
20
100
100
0
100
0
1
0
1
7
ON
550 310 
1 0 0
#HDR
-1
-1
#GR
NM

0.00002384185791015625
0.0
390.000000
0.500000
421
8
55.007045
3.192606
#DATA
390.000000	26.775000 
390.500000	27.678530 
391.000000	28.253113 
391.500000	28.512045 
392.000000	28.662659 
392.500000	28.950696 
393.000000	29.325939 
393.500000	29.785969 
394.000000	30.220128 
394.500000	30.639621 
395.000000	30.987106 
395.500000	31.343075 
396.000000	31.702469 
396.500000	32.080166 
397.000000	32.463780 
397.500000	32.847863 
398.000000	33.302303 
398.500000	33.731946 
399.000000	34.186712 
399.500000	34.528424 
400.000000	34.862121 
400.500000	35.260181 
401.000000	35.932704 
401.500000	36.635053 
402.000000	37.220613 
402.500000	37.676439 
403.000000	38.185136 
403.500000	38.782189 
404.000000	39.364454 
404.500000	40.010984 
405.000000	40.691772 
405.500000	41.365810 
406.000000	41.938878 
406.500000	42.581507 
407.000000	43.185909 
407.500000	43.786113 
408.000000	44.339833 
408.500000	44.902803 
409.000000	45.368416 
409.500000	45.766825 
410.000000	46.258553 
410.500000	46.805643 
411.000000	47.302537 
411.500000	47.598969 
412.000000	48.020787 
412.500000	48.518666 
413.000000	49.142674 
413.500000	49.548151 
414.000000	49.883719 
414.500000	50.144166 
415.000000	50.544628 
415.500000	50.882939 
416.000000	51.266500 
416.500000	51.523984 
417.000000	51.734621 
417.500000	51.815613 
418.000000	52.075242 
418.500000	52.466416 
419.000000	52.896598 
419.500000	53.099643 
420.000000	53.266189 
420.500000	53.460803 
421.000000	53.717537 
421.500000	53.995212 
422.000000	54.254431 
422.500000	54.335795 
423.000000	54.261287 
423.500000	54.226022 
424.000000	54.371212 
424.500000	54.507628 
425.000000	54.614659 
425.500000	54.763439 
426.000000	54.965522 
426.500000	55.003833 
427.000000	54.909999 
427.500000	54.833780 
428.000000	54.819250 
428.500000	54.800946 
429.000000	54.788083 
429.500000	54.885371 
430.000000	54.981689 
430.500000	55.007045 
431.000000	54.859189 
431.500000	54.726318 
432.000000	54.645265 
432.500000	54.711856 
433.000000	54.750636 
433.500000	54.753553 
434.000000	54.662303 
434.500000	54.585878 
435.000000	54.419674 
435.500000	54.220613 
436.000000	53.965181 
436.500000	53.706030 
437.000000	53.462075 
437.500000	53.308424 
438.000000	53.225454 
438.500000	53.096780 
439.000000	52.859143 
439.500000	52.584575 
440.000000	52.397303 
440.500000	52.181818 
441.000000	51.820022 
441.500000	51.360318 
442.000000	50.977234 
442.500000	50.713787 
443.000000	50.352659 
443.500000	49.876340 
444.000000	49.439234 
444.500000	49.207234 
445.000000	48.992310 
445.500000	48.662984 
446.000000	48.191909 
446.500000	47.697143 
447.000000	47.248916 
447.500000	46.901621 
448.000000	46.570893 
448.500000	46.149833 
449.000000	45.653000 
449.500000	45.240924 
450.000000	44.957303 
450.500000	44.647424 
451.000000	44.214545 
451.500000	43.673984 
452.000000	43.272378 
452.500000	42.939318 
453.000000	42.609992 
453.500000	42.175909 
454.000000	41.858598 
454.500000	41.525628 
455.000000	41.092151 
455.500000	40.503068 
456.000000	40.041878 
456.500000	39.723446 
457.000000	39.368992 
457.500000	38.904492 
458.000000	38.454750 
458.500000	38.018636 
459.000000	37.622037 
459.500000	37.292969 
460.000000	36.988500 
460.500000	36.561924 
461.000000	36.066863 
461.500000	35.558378 
462.000000	35.131492 
462.500000	34.713507 
463.000000	34.400378 
463.500000	34.156446 
464.000000	33.918734 
464.500000	33.539151 
465.000000	33.151560 
465.500000	32.772659 
466.000000	32.471022 
466.500000	32.192537 
467.000000	31.882166 
467.500000	31.466166 
468.000000	30.963727 
468.500000	30.560500 
469.000000	30.300393 
469.500000	30.117454 
470.000000	29.823984 
470.500000	29.529628 
471.000000	29.219772 
471.500000	28.908772 
472.000000	28.505803 
472.500000	28.165590 
473.000000	27.859371 
473.500000	27.564590 
474.000000	27.206189 
474.500000	26.888810 
475.000000	26.586068 
475.500000	26.340424 
476.000000	26.154666 
476.500000	26.041916 
477.000000	25.835310 
477.500000	25.493901 
478.000000	25.064060 
478.500000	24.709659 
479.000000	24.413939 
479.500000	24.131825 
480.000000	23.824704 
480.500000	23.517719 
481.000000	23.226818 
481.500000	22.972363 
482.000000	22.766666 
482.500000	22.573250 
483.000000	22.354386 
483.500000	22.180840 
484.000000	22.081803 
484.500000	22.015484 
485.000000	21.824303 
485.500000	21.559446 
486.000000	21.266833 
486.500000	21.045969 
487.000000	20.829000 
487.500000	20.634295 
488.000000	20.399878 
488.500000	20.138204 
489.000000	19.898484 
489.500000	19.767439 
490.000000	19.680909 
490.500000	19.590143 
491.000000	19.440825 
491.500000	19.277212 
492.000000	19.088946 
492.500000	18.936765 
493.000000	18.794969 
493.500000	18.652250 
494.000000	18.467515 
494.500000	18.270303 
495.000000	18.030340 
495.500000	17.788037 
496.000000	17.544083 
496.500000	17.332553 
497.000000	17.094825 
497.500000	16.910204 
498.000000	16.790439 
498.500000	16.695310 
499.000000	16.458287 
499.500000	16.202787 
500.000000	16.076674 
500.500000	16.089689 
501.000000	16.021886 
501.500000	15.826143 
502.000000	15.543219 
502.500000	15.310712 
503.000000	15.151446 
503.500000	15.107984 
504.000000	15.041803 
504.500000	14.902810 
505.000000	14.696545 
505.500000	14.575204 
506.000000	14.529696 
506.500000	14.464318 
507.000000	14.336606 
507.500000	14.238939 
508.000000	14.165795 
508.500000	14.095045 
509.000000	13.975969 
509.500000	13.851545 
510.000000	13.728742 
510.500000	13.615719 
511.000000	13.495416 
511.500000	13.433780 
512.000000	13.385704 
512.500000	13.295386 
513.000000	13.182386 
513.500000	13.075159 
514.000000	12.944848 
514.500000	12.756871 
515.000000	12.518424 
515.500000	12.342666 
516.000000	12.266143 
516.500000	12.269068 
517.000000	12.230681 
517.500000	12.111606 
518.000000	11.933007 
518.500000	11.797803 
519.000000	11.689628 
519.500000	11.583795 
520.000000	11.423712 
520.500000	11.282825 
521.000000	11.168250 
521.500000	11.098818 
522.000000	10.981424 
522.500000	10.852765 
523.000000	10.734977 
523.500000	10.671636 
524.000000	10.588204 
524.500000	10.492530 
525.000000	10.372007 
525.500000	10.245969 
526.000000	10.150545 
526.500000	10.106431 
527.000000	10.052962 
527.500000	9.947310  
528.000000	9.817068  
528.500000	9.712674  
529.000000	9.642545  
529.500000	9.555295  
530.000000	9.436416  
530.500000	9.287825  
531.000000	9.153181  
531.500000	9.061174  
532.000000	9.010803  
532.500000	8.949719  
533.000000	8.840083  
533.500000	8.696765  
534.000000	8.559439  
534.500000	8.441121  
535.000000	8.341371  
535.500000	8.252681  
536.000000	8.182727  
536.500000	8.087734  
537.000000	7.970863  
537.500000	7.840340  
538.000000	7.732242  
538.500000	7.650537  
539.000000	7.605871  
539.500000	7.584719  
540.000000	7.520500  
540.500000	7.393613  
541.000000	7.241757  
541.500000	7.155530  
542.000000	7.117856  
542.500000	7.100643  
543.000000	7.049681  
543.500000	6.950098  
544.000000	6.840719  
544.500000	6.751696  
545.000000	6.693719  
545.500000	6.642068  
546.000000	6.583969  
546.500000	6.527651  
547.000000	6.460121  
547.500000	6.420590  
548.000000	6.396606  
548.500000	6.395416  
549.000000	6.316886  
549.500000	6.224401  
550.000000	6.138166  
550.500000	6.089818  
551.000000	6.024734  
551.500000	5.958295  
552.000000	5.916106  
552.500000	5.902257  
553.000000	5.905734  
553.500000	5.893113  
554.000000	5.839840  
554.500000	5.738136  
555.000000	5.649234  
555.500000	5.595068  
556.000000	5.567651  
556.500000	5.545469  
557.000000	5.535363  
557.500000	5.528477  
558.000000	5.530234  
558.500000	5.513704  
559.000000	5.458401  
559.500000	5.372219  
560.000000	5.286446  
560.500000	5.242303  
561.000000	5.238325  
561.500000	5.241393  
562.000000	5.205439  
562.500000	5.132969  
563.000000	5.053825  
563.500000	5.006196  
564.000000	4.968030  
564.500000	4.930249  
565.000000	4.900280  
565.500000	4.879106  
566.000000	4.842772  
566.500000	4.803462  
567.000000	4.776507  
567.500000	4.750272  
568.000000	4.675356  
568.500000	4.593969  
569.000000	4.548750  
569.500000	4.559113  
570.000000	4.568916  
570.500000	4.557878  
571.000000	4.521969  
571.500000	4.506393  
572.000000	4.489901  
572.500000	4.462606  
573.000000	4.410522  
573.500000	4.349909  
574.000000	4.293674  
574.500000	4.248303  
575.000000	4.221318  
575.500000	4.199946  
576.000000	4.157356  
576.500000	4.118310  
577.000000	4.118106  
577.500000	4.147234  
578.000000	4.138242  
578.500000	4.073030  
579.000000	4.004159  
579.500000	3.972416  
580.000000	3.938810  
580.500000	3.908946  
581.000000	3.897378  
581.500000	3.918643  
582.000000	3.941787  
582.500000	3.928159  
583.000000	3.888818  
583.500000	3.840515  
584.000000	3.813924  
584.500000	3.790348  
585.000000	3.796378  
585.500000	3.780015  
586.000000	3.754939  
586.500000	3.713265  
587.000000	3.678462  
587.500000	3.641106  
588.000000	3.606242  
588.500000	3.587757  
589.000000	3.579106  
589.500000	3.577204  
590.000000	3.559765  
590.500000	3.555878  
591.000000	3.549189  
591.500000	3.516871  
592.000000	3.441984  
592.500000	3.372106  
593.000000	3.331992  
593.500000	3.338643  
594.000000	3.346257  
594.500000	3.337931  
595.000000	3.302772  
595.500000	3.266780  
596.000000	3.228060  
596.500000	3.204969  
597.000000	3.192606  
597.500000	3.202583  
598.000000	3.211757  
598.500000	3.232212  
599.000000	3.253977  
599.500000	3.261128  
600.000000	3.240000  

