CdS 5 s emission at 547 nm (uv 274 nm),,
Wavelength (nm),Intensity (a.u.),
200,-6.244592667,
200.9299927,-5.856431961,
202.0299988,-8.498437881,
202.9600067,-5.032491684,
204.0599976,-8.081008911,
205,-2.949355125,
205.9299927,-11.28547859,
207.0299988,-9.27539444,
207.9600067,-6.844591141,
209.0599976,-9.342033386,
210,-8.803766251,
210.9299927,-7.812103271,
212.0299988,-9.752408981,
212.9600067,-8.763240814,
214.0599976,-6.778232574,
215,-10.66895676,
215.9299927,-10.89713097,
217.0299988,-9.912096024,
217.9600067,-10.79522419,
219.0599976,-7.919880867,
220,-7.81886816,
220.9299927,-11.35751534,
222.0299988,-10.05820751,
222.9600067,-10.73180962,
224.0599976,-11.14050007,
225,-12.33458042,
225.9299927,-10.91922188,
227.0299988,-12.7413187,
227.9600067,-13.46361256,
229.0599976,-13.55276012,
230,-13.38944435,
230.9299927,-13.55753994,
232.0299988,-13.5502224,
232.9600067,-13.51235199,
234.0599976,-13.3263588,
235,-13.23734283,
235.9299927,-13.57382011,
237.0299988,-13.57495403,
237.9600067,-13.07070065,
239.0599976,-13.21946144,
240,-13.18655109,
240.9299927,-13.07968235,
242.0299988,-13.08263874,
242.9600067,-13.19847107,
244.0599976,-12.86573219,
245,-12.42808628,
245.9299927,-12.3574543,
247.0299988,-12.33437634,
247.9600067,-12.00968456,
249.0599976,-11.44522381,
250,-10.48125458,
250.9299927,-9.923879623,
252.0299988,-8.516244888,
252.9600067,-8.660987854,
254.0599976,-8.003871918,
255,-7.751394749,
255.9299927,-8.156360626,
257.0299988,-9.352484703,
257.9599915,-9.361793518,
259.0599976,-8.57336235,
260,-8.673208237,
260.9299927,-9.132804871,
262.0299988,-9.077748299,
262.9599915,-9.194525719,
264.0599976,-8.948358536,
265,-8.816329956,
265.9299927,-8.693267822,
267.0299988,-8.195291519,
267.9599915,-5.837026596,
269.0599976,7.250396729,
270,26.75033188,
271.0700073,60.28607941,
272,90.68314362,
273.0700073,106.9460754,
274,105.6280365,
275.0700073,86.22846222,
276,59.05828094,
277.0700073,23.45407867,
278,3.954248428,
279.0700073,-7.718425751,
280,-10.31917477,
280.9299927,-10.84083366,
282.0299988,-10.79550934,
282.9599915,-10.91034603,
284.0599976,-10.97276974,
285,-10.91094685,
285.9299927,-10.41235542,
287.0299988,-10.2626667,
287.9599915,-10.41810799,
289.0599976,-10.28376102,
290,-9.901195526,
290.9299927,-10.09785175,
292.0299988,-9.873430252,
292.9599915,-9.730195999,
294.0599976,-9.718416214,
295,-9.750741959,
295.9299927,-9.591941833,
297.0299988,-9.261871338,
297.9599915,-9.227795601,
299.0599976,-9.449353218,
300,-9.037446022,
301.0700073,-9.064637184,
302,-9.033979416,
303.0700073,-8.856971741,
304,-8.862716675,
305.0700073,-8.808538437,
306,-8.810666084,
307.0700073,-8.547180176,
308,-8.855269432,
309.0700073,-9.003992081,
310,-8.731716156,
311.0700073,-8.342875481,
312,-8.826805115,
313.0700073,-8.801490784,
314,-9.039254189,
315.0700073,-9.112413406,
316,-9.003047943,
317.0700073,-9.352405548,
318,-9.065319061,
319.0700073,-9.460438728,
320,-8.853191376,
320.9299927,-9.485105515,
322.0299988,-9.079986572,
322.9599915,-9.508169174,
324.0599976,-9.917451859,
325,-9.597432137,
325.9299927,-9.717225075,
327.0299988,-10.38390923,
327.9599915,-10.08470249,
329.0599976,-10.5136795,
330,-10.27443886,
331.0700073,-10.42932415,
332,-10.58083534,
333.0700073,-10.35468674,
334,-10.7906332,
335.0700073,-11.27079582,
336,-11.48848152,
337.0700073,-11.58107567,
338,-11.1626997,
339.0700073,-11.56082726,
340,-11.31968403,
341.0700073,-11.34301186,
342,-11.43953228,
343.0700073,-11.40686321,
344,-11.3761549,
345.0700073,-11.97416019,
346,-11.46046829,
347.0700073,-11.69222164,
348,-11.71886253,
349.0700073,-11.21629429,
350,-11.50030327,
351.0700073,-11.32881165,
352,-11.55831528,
353.0700073,-11.69213104,
354,-11.84871864,
355.0700073,-11.57888603,
356,-11.48564911,
357.0700073,-11.85701561,
358,-11.76551247,
359.0700073,-11.78727436,
360,-11.76656628,
361.0700073,-11.64591026,
362,-11.67609119,
363.0700073,-11.77463913,
364,-11.93897057,
365.0700073,-11.95430088,
366,-11.85848713,
367.0700073,-11.94584751,
368,-11.94050217,
369.0700073,-11.95030117,
370,-12.00824738,
371.0700073,-12.32461166,
372,-11.86007881,
373.0700073,-12.45494843,
374,-12.40512562,
375.0700073,-12.63663292,
376,-12.47483063,
377.0700073,-12.51361275,
378,-12.38223934,
379.0700073,-12.33012104,
380,-12.35984707,
381.0700073,-12.59461021,
382,-12.51959705,
383.0700073,-12.5662241,
384,-12.76484299,
385.0700073,-12.55392075,
386,-12.83936882,
387.0700073,-12.50657082,
388,-12.64384174,
389.0700073,-12.64116764,
390,-12.93385124,
391.0599976,-12.71283817,
391.9599915,-12.49424553,
393.0299988,-12.71839714,
393.9299927,-12.71446991,
395,-12.59989738,
396.0599976,-12.83463478,
396.9599915,-12.6670332,
398.0299988,-12.92802238,
398.9299927,-12.79769325,
400,-12.74410057,
401.0700073,-12.7924509,
402,-12.74886799,
403.0700073,-12.95645523,
404,-12.89661217,
405.0700073,-12.82598782,
406,-12.81787491,
407.0700073,-12.78890228,
408,-12.85098362,
409.0700073,-12.84113216,
410,-12.96440697,
411.0599976,-12.82964516,
411.9599915,-12.78905296,
413.0299988,-12.88417912,
413.9299927,-12.88259602,
415,-12.95574665,
416.0599976,-12.89526939,
416.9599915,-12.93172646,
418.0299988,-12.95651627,
418.9299927,-12.92016315,
420,-12.91001987,
421.0700073,-12.99906445,
422,-12.88792419,
423.0700073,-12.88998985,
424,-12.8155899,
425.0700073,-12.88089657,
426,-12.94200134,
427.0700073,-12.99151421,
428,-12.90989685,
429.0700073,-12.95512009,
430,-12.88562679,
431.0599976,-12.90886497,
431.9599915,-12.78654575,
433.0299988,-12.93864536,
433.9299927,-12.93062305,
435,-12.8901186,
436.0599976,-12.8746624,
436.9599915,-12.85235214,
438.0299988,-12.93821621,
438.9299927,-12.91864395,
440,-13.04223347,
441.0599976,-12.94342422,
441.9599915,-12.87658501,
443.0299988,-13.08352089,
443.9299927,-12.93780518,
445,-12.96724129,
446.0599976,-13.07321739,
446.9599915,-12.97462177,
448.0299988,-13.08305836,
448.9299927,-13.10393047,
450,-12.92055035,
451.0599976,-13.17692566,
451.9599915,-13.10422134,
453.0299988,-13.03022099,
453.9299927,-13.0928297,
455,-13.08115959,
456.0599976,-13.13626957,
456.9599915,-13.16546249,
458.0299988,-13.15999699,
458.9299927,-13.10195827,
460,-13.09552097,
461.0599976,-13.04133415,
461.9599915,-13.01753807,
463.0299988,-13.06912518,
463.9299927,-13.11726761,
465,-13.34768486,
466.0599976,-13.18844509,
466.9599915,-13.21000385,
468.0299988,-13.00731564,
468.9299927,-12.86487293,
470,-12.76058483,
471.0599976,-12.75755882,
471.9599915,-12.69137287,
473.0299988,-12.84028339,
473.9299927,-13.06480217,
475,-13.06842327,
476.0599976,-13.32880878,
476.9599915,-13.47157288,
478.0299988,-13.52414322,
478.9299927,-13.40633202,
480,-13.53414726,
481.0400085,-13.67312717,
481.9400024,-13.53993988,
482.980011,-13.60512733,
484.019989,-13.63022041,
485.0700073,-13.64113903,
485.9700012,-13.73557568,
487.0100098,-13.73528862,
488.0499878,-13.69806862,
488.9500122,-13.79249859,
490,-13.7808876,
491.0599976,-13.79160309,
491.9599915,-13.72968578,
493.0299988,-13.77373028,
493.9299927,-13.88140583,
495,-14.00789547,
496.0599976,-13.84047604,
496.9599915,-13.85357285,
498.0299988,-13.81848526,
498.9299927,-13.8888607,
500,-13.86941814,
501.0400085,-13.60489178,
501.9400024,-13.7712822,
502.980011,-13.82780552,
504.019989,-13.85351276,
505.0700073,-13.53067684,
505.9700012,-13.9551506,
507.0100098,-13.9473772,
508.0499878,-13.92675209,
508.9500122,-13.85326862,
510,-13.88100433,
511.0400085,-13.96906567,
511.9400024,-13.98133945,
512.9799805,-13.90561867,
514.0200195,-13.87171173,
515.0700073,-14.00983238,
515.9699707,-13.9797411,
517.0100098,-14.15003777,
518.0499878,-13.86551285,
518.9500122,-14.05261326,
520,-14.00617027,
521.039978,-14.10177231,
521.9400024,-13.7816267,
522.9799805,-14.12219715,
524.0200195,-14.09555817,
525.0700073,-14.04355621,
525.9699707,-14.15120888,
527.0100098,-14.16890621,
528.0499878,-14.14568424,
528.9500122,-14.12268639,
530,-14.11965656,
531.039978,-14.06715012,
531.9400024,-14.15151691,
532.9799805,-13.97364044,
534.0200195,-14.09367847,
535.0700073,-13.88069248,
535.9699707,-13.85163975,
537.0100098,-13.79689503,

