CdS 10 s emmision (uv 278 nm)-Em.,,
Wavelength (nm),Intensity (a.u.),
290.9200134,-1.547014236,
291.8399963,-0.7115755081,
292.9200134,0.1556091309,
293.8399963,1.34173584,
294.9200134,3.055000305,
295.8399963,4.633890152,
296.9200134,5.736091614,
297.8399963,6.570323944,
298.9200134,8.204380035,
299.8399963,8.818653107,
300.9299927,9.763082504,
301.8699951,11.94485474,
302.9599915,12.91923714,
303.8999939,13.69112015,
304.8399963,15.66609001,
305.9299927,17.04019547,
306.8699951,18.24476624,
307.9599915,19.81211472,
308.8999939,19.44875717,
309.8399963,19.17097092,
310.9200134,19.74687576,
311.8399963,18.68603897,
312.9200134,19.94656754,
313.8399963,20.34823608,
314.9200134,19.54534912,
315.8399963,19.12469482,
316.9200134,20.77045822,
317.8399963,20.54330444,
318.9200134,21.36581421,
319.8399963,20.53570557,
320.9299927,21.69027328,
321.8699951,21.64663315,
322.9599915,22.11940765,
323.8999939,22.9030304,
324.8399963,23.39038467,
325.9299927,23.00784302,
326.8699951,23.55852509,
327.9599915,23.77714157,
328.8999939,25.09566498,
329.8399963,24.59247208,
330.9200134,26.23433304,
331.8399963,26.24956131,
332.9200134,26.64693069,
333.8399963,27.68923569,
334.9200134,28.07409286,
335.8399963,29.60285568,
336.9200134,31.11242294,
337.8399963,31.49038696,
338.9200134,34.34112167,
339.8399963,35.61157227,
340.9200134,37.4604187,
341.8399963,39.59128571,
342.9200134,42.86527252,
343.8399963,44.45380402,
344.9200134,47.88780212,
345.8399963,50.39923859,
346.9200134,54.63304138,
347.8399963,56.12969208,
348.9200134,62.24181366,
349.8399963,65.94864655,
350.9200134,69.33035278,
351.8399963,74.21828461,
352.9200134,78.97650909,
353.8399963,84.08790588,
354.9200134,90.26010895,
355.8399963,94.55216217,
356.9200134,102.4090118,
357.8399963,107.5949326,
358.9200134,111.3744125,
359.8399963,113.5847549,
360.9200134,121.9336929,
361.8399963,126.3046341,
362.9200134,132.6436768,
363.8399963,136.5190125,
364.9200134,143.2437439,
365.8399963,145.5609131,
366.9200134,154.7440491,
367.8399963,153.8234253,
368.9200134,163.2137756,
369.8399963,164.6722412,
370.9200134,170.3321228,
371.8399963,174.3898621,
372.9200134,177.2681274,
373.8399963,181.8290405,
374.9200134,184.1729736,
375.8399963,186.9173584,
376.9200134,189.7442627,
377.8399963,192.6915283,
378.9200134,193.3535156,
379.8399963,197.5915527,
380.9200134,197.7711792,
381.8399963,197.8460388,
382.9200134,198.5970459,
383.8399963,200.0816345,
384.9200134,200.2765503,
385.8399963,200.0060425,
386.9200134,203.4500122,
387.8399963,200.9450989,
388.9200134,199.2397461,
389.8399963,200.6453247,
390.9200134,196.5400696,
391.8399963,196.8639221,
392.9200134,198.0893555,
393.8399963,193.5031128,
394.9200134,194.8341064,
395.8399963,191.9100342,
396.9200134,190.4011841,
397.8399963,189.1513977,
398.9200134,184.7459106,
399.8399963,183.1990967,
400.9200134,180.4608459,
401.8399963,182.3560486,
402.9200134,176.2454529,
403.8399963,175.540802,
404.9200134,171.7849731,
405.8399963,171.4446716,
406.9200134,163.641449,
407.8399963,161.3076782,
408.9200134,159.2064209,
409.8399963,158.0151978,
410.8999939,154.763092,
411.9599915,148.7990723,
412.8699951,146.4233398,
413.9299927,144.1470337,
414.8399963,141.3324585,
415.8999939,135.3773804,
416.9599915,133.2268677,
417.8699951,130.9223022,
418.9299927,129.1552429,
419.8399963,124.0628586,
420.9200134,121.7939682,
421.8399963,118.9075699,
422.9200134,113.8454056,
423.8399963,110.4809265,
424.9200134,104.9496536,
425.8399963,104.5409775,
426.9200134,102.1948776,
427.8399963,100.1805344,
428.9200134,93.5528183,
429.8399963,91.40737915,
430.8999939,86.43151855,
431.9599915,83.48252106,
432.8699951,80.04946136,
433.9299927,77.21372223,
434.8399963,74.81809998,
435.8999939,73.72727203,
436.9599915,69.35458374,
437.8699951,69.35712433,
438.9299927,63.94152832,
439.8399963,63.1293335,
440.8999939,57.75460815,
441.9599915,55.98098755,
442.8699951,55.18058777,
443.9299927,53.06095886,
444.8399963,52.02484894,
445.8999939,48.58583069,
446.9599915,47.03584671,
447.8699951,45.1352272,
448.9299927,44.44281006,
449.8399963,39.90211487,
450.8999939,39.89785004,
451.9599915,37.40773392,
452.8699951,36.15781021,
453.9299927,34.7895813,
454.8399963,35.07775879,
455.8999939,33.6952095,
456.9599915,28.5818634,
457.8699951,30.16895676,
458.9299927,27.77082062,
459.8399963,26.41906357,
460.8999939,25.02465057,
461.9599915,23.83189392,
462.8699951,23.47608185,
463.9299927,22.26294327,
464.8399963,19.36552048,
465.8999939,19.51620102,
466.9599915,19.11042786,
467.8699951,17.26137733,
468.9299927,15.73077393,
469.8399963,14.08968163,
470.8999939,14.88236237,
471.9599915,12.88845825,
472.8699951,13.06692505,
473.9299927,12.02934837,
474.8399963,10.65574074,
475.8999939,10.05517006,
476.9599915,9.233390808,
477.8699951,9.144901276,
478.9299927,8.156438828,
479.8399963,8.191999435,
480.8999939,5.838962555,
481.9599915,5.849786758,
482.8699951,4.945760727,
483.9299927,4.515544891,
484.8399963,3.685436249,
485.8999939,3.473268509,
486.9599915,3.381319046,
487.8699951,2.192964554,
488.9299927,1.749158859,
489.8399963,1.073208809,
490.8900146,1.141228676,
491.9400024,0.05990886688,
492.980011,-0.6055622101,
493.8800049,0.01094150543,
494.9200134,-1.009858131,
495.9700012,-1.638567924,
496.8599854,-2.4607687,
497.9100037,-2.203454971,
498.9500122,-2.435301781,
499.8500061,-3.137918472,
500.8900146,-3.11078167,
501.9400024,-3.110654831,
502.980011,-3.867788315,
503.8800049,-4.534539223,
504.9200134,-5.003332138,
505.9700012,-5.053424835,
506.8599854,-4.952013016,
507.9100037,-5.354587555,
508.9500122,-5.851195335,
509.8500061,-5.664008141,
510.8999939,-6.475290298,
511.9599915,-6.153997421,
512.8699951,-7.106687546,
513.9299927,-7.107790947,
514.8400269,-6.564378738,
515.9000244,-7.607834339,
516.960022,-7.272985935,
517.8699951,-7.813569069,
518.9299927,-7.670898914,
519.8400269,-7.949100018,
520.8900146,-7.726191044,
521.9400024,-8.508908272,
522.9799805,-8.408675194,
523.8800049,-8.607985497,
524.9199829,-8.624015808,
525.9699707,-9.160181046,
526.8599854,-9.126242638,
527.9099731,-8.770858765,
528.9500122,-9.892690659,
529.8499756,-9.459329605,
530.8900146,-9.690504074,
531.9400024,-9.25188446,
532.9799805,-9.672091484,
533.8800049,-9.649278641,
534.9199829,-9.47513485,
535.9699707,-9.896289825,
536.8599854,-10.16607475,
537.9099731,-10.46152306,
538.9500122,-10.13818073,
539.8499756,-10.17351627,
540.8800049,-10.03335953,
541.9099731,-10.25087357,
542.9400024,-10.04449272,
543.9699707,-10.32292366,
544.8499756,-9.942508698,
545.8800049,-10.0477047,
546.9099731,-10.15496445,
547.9400024,-9.599168777,
548.9699707,-9.305316925,
549.8499756,-7.483415127,
550.8900146,-2.598677635,
551.9400024,4.918481827,
552.9799805,21.50689316,
553.8800049,40.12408066,
554.9199829,65.92928314,
555.9699707,101.052948,
556.8599854,125.0137558,
557.9099731,168.3649292,
558.9500122,211.0168762,
559.8499756,248.912262,
560.8900146,289.6098633,
561.9400024,315.2807007,
562.9799805,335.7643127,
563.8800049,341.6340637,
564.9199829,325.923584,
565.9699707,284.2322388,
566.8599854,240.2745667,
567.9099731,181.8197021,
568.9500122,129.4755554,
569.8499756,85.98273468,
570.8800049,46.16557693,
571.9099731,21.63977814,
572.9400024,6.290147781,
573.9699707,-1.685963631,
574.8499756,-5.505025864,
575.8800049,-6.83192873,
576.9099731,-7.583304405,
577.9400024,-8.117837906,
578.9699707,-7.622173309,
579.8499756,-7.814678669,
580.8800049,-7.567826748,
581.9099731,-7.648078442,
582.9400024,-7.382778645,
583.9699707,-7.235201359,
584.8499756,-6.585961342,
585.8800049,-7.083620071,
586.9099731,-6.44187355,
587.9400024,-6.658644676,
588.9699707,-6.920931816,
589.8499756,-5.943449974,
590.8800049,-5.934559822,
591.9099731,-6.084236145,
592.9400024,-5.822216988,
593.9699707,-5.755724907,
594.8499756,-5.906089783,
595.8800049,-5.719660759,
596.9099731,-5.691087723,
597.9400024,-6.06413269,
598.9699707,-5.420902252,
599.8499756,-5.306432724,
600.8800049,-5.016021729,
601.9099731,-5.070925713,
602.9400024,-5.23413372,
603.9699707,-5.066333771,
604.8499756,-4.612175941,
605.8800049,-4.97806263,
606.9099731,-4.319777489,
607.9400024,-4.526042938,
608.9699707,-4.40581131,
609.8499756,-4.681974411,
610.8599854,-3.180912971,
611.8800049,-3.57681942,
612.8900146,-3.715831757,
613.9099731,-3.550147057,
614.9199829,-3.028569221,
615.9400024,-3.436211586,
616.9500122,-4.234249115,
617.9699707,-4.00290966,
618.9799805,-3.817844391,
619.8499756,-4.583464622,
620.8800049,-4.61151886,
621.9099731,-4.578332901,
622.9400024,-4.858527184,
623.9699707,-4.987008095,
624.8499756,-5.500580788,
625.8800049,-5.109243393,
626.9099731,-5.7526474,
627.9400024,-5.599809647,
628.9699707,-5.952583313,
629.8499756,-5.508052826,
630.8599854,-5.256635666,
631.8800049,-6.025550842,
632.8900146,-5.554029465,
633.9099731,-6.403989792,
634.9199829,-6.147882462,
635.9400024,-6.593855858,
636.9500122,-6.471366882,
637.9699707,-6.74768877,
638.9799805,-6.333234787,
639.8499756,-6.306435585,
640.8599854,-7.240400314,
641.8800049,-6.738703251,
642.8900146,-6.563911438,
643.9099731,-7.003071308,
644.9199829,-6.748557568,
645.9400024,-6.578828812,
646.9500122,-6.437678337,
647.9699707,-6.883079052,
648.9799805,-6.564920425,
649.8499756,-6.965051651,
650.8499756,-7.31335783,
651.8499756,-6.907461166,
652.8499756,-6.383160591,
653.8499756,-7.180747986,
654.8499756,-7.614530563,
655.8499756,-7.612190723,
656.8499756,-7.260340691,
657.8499756,-7.669440746,
658.8499756,-7.638960361,
659.8499756,-7.359703064,
660.8599854,-7.750517845,
661.8800049,-7.451933384,
662.8900146,-7.568224907,
663.9099731,-8.020580292,
664.9199829,-7.777194977,
665.9400024,-7.842422962,
666.9500122,-7.913889408,
667.9699707,-8.055452347,
668.9799805,-8.097000122,
669.8499756,-7.82340765,
670.8499756,-7.719917774,
671.8499756,-7.652075768,
672.8499756,-7.978851318,
673.8499756,-7.707673073,
674.8499756,-7.875597954,
675.8499756,-7.221124172,
676.8499756,-7.399707317,
677.8499756,-7.65228796,
678.8499756,-7.567524433,
679.8499756,-8.001625061,
680.8499756,-7.636862278,
681.8499756,-7.40488863,
682.8499756,-7.229454517,
683.8499756,-6.913786888,
684.8499756,-7.353683949,
685.8499756,-6.982223988,
686.8499756,-7.143604279,
687.8499756,-7.664772987,
688.8499756,-7.353592873,
689.8499756,-7.660695553,
690.8499756,-6.751384258,
691.8499756,-7.243834972,
692.8499756,-6.82088995,
693.8499756,-7.441085815,
694.8499756,-6.980950356,
695.8499756,-7.791400909,
696.8499756,-6.559509277,
697.8499756,-7.378366947,
698.8499756,-6.281855583,
699.8499756,-6.79432869,
700.8499756,-6.232586861,
701.8499756,-6.526092529,
702.8499756,-6.796126842,
703.8499756,-6.159113884,
704.8499756,-6.232851028,
705.8499756,-5.943786621,
706.8499756,-6.304927826,
707.8499756,-6.334994316,
708.8499756,-5.841345787,
709.8499756,-5.50389576,
710.9799805,-5.871012688,
711.9699707,-5.266356468,
712.9500122,-5.518098831,
713.9400024,-5.115652084,
714.9199829,-4.867900848,
715.9099731,-5.079733849,
716.9000244,-5.258475304,
717.8800049,-5.254524231,
718.8699951,-4.663830757,
719.8499756,-4.668232918,
720.9799805,-5.006967545,
721.9699707,-3.841850281,
722.9500122,-4.402113914,
723.9400024,-4.754613876,
724.9199829,-4.321008682,
725.9099731,-3.959848404,
726.9000244,-3.898654938,
727.8800049,-4.163669586,
728.8699951,-4.255322456,
729.8499756,-3.66613102,
730.9799805,-3.200551033,
731.9699707,-3.78677845,
732.9500122,-3.535680771,
733.9400024,-3.801366806,
734.9199829,-3.289809227,
735.9099731,-3.416898727,
736.9000244,-3.208300591,
737.8800049,-2.650771141,
738.8699951,-3.530283928,
739.8499756,-2.873970032,
740.9799805,-2.73687458,
741.9699707,-2.449061394,
742.9500122,-2.76277256,
743.9400024,-2.518738747,
744.9199829,-2.998423576,
745.9099731,-2.849888802,
746.9000244,-2.608206749,
747.8800049,-3.060577393,
748.8699951,-3.262820244,
749.8499756,-3.158187866,
750.9699707,-3.179204941,
751.9400024,-3.110045433,
752.9099731,-3.349638939,
753.8800049,-3.084859848,
754.8599854,-3.22211647,
755.9699707,-3.286125183,
756.9400024,-2.976130486,
757.9099731,-3.077588081,
758.8800049,-3.055461884,
759.8599854,-3.208734512,
760.9799805,-3.722847939,
761.9699707,-3.844355583,
762.9500122,-3.761734009,
763.9400024,-4.320069313,
764.9199829,-3.966495514,
765.9099731,-3.77407074,
766.9000244,-4.390526772,
767.8800049,-4.307219505,
768.8699951,-4.860830307,
769.8499756,-5.074490547,
770.9500122,-5.699263573,
771.9099731,-5.15718174,
772.8699951,-5.541618347,
773.9699707,-5.779185295,
774.9299927,-5.475419998,
775.8900146,-5.765176773,
776.9799805,-6.468646049,
777.9400024,-6.473448753,
778.9000244,-6.81815815,
779.8599854,-6.827800274,
780.9699707,-6.591522217,
781.9400024,-7.078913689,
782.9099731,-7.638783455,
783.8800049,-7.591736794,
784.8599854,-8.112438202,
785.9699707,-7.729637623,
786.9400024,-8.00353241,
787.9099731,-8.394376755,
788.8800049,-8.21116066,
789.8599854,-9.014653206,
790.9500122,-7.984371662,
791.9099731,-8.336502075,
792.8699951,-8.898498535,
793.9699707,-9.503802299,
794.9299927,-9.021989822,
795.8900146,-9.110393524,
796.9799805,-9.166283607,
797.9400024,-9.070419312,
798.9000244,-9.971843719,
799.8599854,-10.05775928,
800.9500122,-9.669849396,

