PE FL                   SPECTRUM    ASCII       PEDS        1.60        
  -1
01#131.SP
02/03/16
02:21:53.00
02/03/16
02:24:09.00


600.000000
1









LS55
370.00
5.00
5.00
SCAN
1
20
100
100
0
100
0
1
0
1
7
ON
600 360 
1 0 0
#HDR
-1
-1
#GR
NM

0.00002384185791015625
0.0
390.000000
0.500000
421
8
60.469507
0.287522
#DATA
390.000000	44.179999 
390.500000	46.205969 
391.000000	47.956803 
391.500000	49.396174 
392.000000	50.587787 
392.500000	51.691121 
393.000000	52.692931 
393.500000	53.767734 
394.000000	54.696219 
394.500000	55.421545 
395.000000	56.006007 
395.500000	56.719159 
396.000000	57.493136 
396.500000	58.115749 
397.000000	58.429992 
397.500000	58.660681 
398.000000	58.919037 
398.500000	59.221856 
399.000000	59.532030 
399.500000	59.810257 
400.000000	59.923969 
400.500000	60.012333 
401.000000	60.161757 
401.500000	60.409628 
402.000000	60.469507 
402.500000	60.341848 
403.000000	60.123083 
403.500000	60.073659 
404.000000	60.149719 
404.500000	60.274484 
405.000000	60.320757 
405.500000	60.257568 
406.000000	60.172325 
406.500000	60.102045 
407.000000	60.050537 
407.500000	60.003106 
408.000000	59.969181 
408.500000	59.891181 
409.000000	59.719810 
409.500000	59.552871 
410.000000	59.475712 
410.500000	59.404916 
411.000000	59.248234 
411.500000	59.147628 
412.000000	59.226189 
412.500000	59.396022 
413.000000	59.540212 
413.500000	59.635409 
414.000000	59.675575 
414.500000	59.624568 
415.000000	59.537825 
415.500000	59.589643 
416.000000	59.698310 
416.500000	59.758712 
417.000000	59.744848 
417.500000	59.762068 
418.000000	59.804022 
418.500000	59.764765 
419.000000	59.605916 
419.500000	59.352022 
420.000000	59.188401 
420.500000	59.021272 
421.000000	58.897143 
421.500000	58.771204 
422.000000	58.710545 
422.500000	58.601575 
423.000000	58.475757 
423.500000	58.363530 
424.000000	58.333924 
424.500000	58.277189 
425.000000	58.032219 
425.500000	57.653446 
426.000000	57.284666 
426.500000	56.987060 
427.000000	56.666977 
427.500000	56.331075 
428.000000	56.004462 
428.500000	55.744500 
429.000000	55.378037 
429.500000	54.915121 
430.000000	54.389265 
430.500000	53.891833 
431.000000	53.485803 
431.500000	53.219106 
432.000000	52.943515 
432.500000	52.542424 
433.000000	51.983969 
433.500000	51.355204 
434.000000	50.702431 
434.500000	50.122439 
435.000000	49.541431 
435.500000	48.948916 
436.000000	48.281287 
436.500000	47.677568 
437.000000	47.141643 
437.500000	46.600287 
438.000000	45.968901 
438.500000	45.299015 
439.000000	44.638037 
439.500000	44.076310 
440.000000	43.510484 
440.500000	42.866757 
441.000000	42.099477 
441.500000	41.433696 
442.000000	40.885757 
442.500000	40.420409 
443.000000	39.777818 
443.500000	39.022750 
444.000000	38.270348 
444.500000	37.633757 
445.000000	37.028250 
445.500000	36.391181 
446.000000	35.712106 
446.500000	35.089416 
447.000000	34.497318 
447.500000	33.843780 
448.000000	33.072962 
448.500000	32.283613 
449.000000	31.553757 
449.500000	30.960606 
450.000000	30.414916 
450.500000	29.813416 
451.000000	29.183409 
451.500000	28.603590 
452.000000	28.050378 
452.500000	27.417643 
453.000000	26.751015 
453.500000	26.159954 
454.000000	25.692303 
454.500000	25.186969 
455.000000	24.603325 
455.500000	23.978924 
456.000000	23.359636 
456.500000	22.761636 
457.000000	22.208810 
457.500000	21.735484 
458.000000	21.325924 
458.500000	20.932439 
459.000000	20.499537 
459.500000	20.006219 
460.000000	19.501446 
460.500000	19.040765 
461.000000	18.572454 
461.500000	18.052068 
462.000000	17.540000 
462.500000	17.136053 
463.000000	16.792946 
463.500000	16.416765 
464.000000	15.963674 
464.500000	15.532992 
465.000000	15.157060 
465.500000	14.848643 
466.000000	14.575174 
466.500000	14.255886 
467.000000	13.897810 
467.500000	13.543356 
468.000000	13.277560 
468.500000	13.009651 
469.000000	12.713568 
469.500000	12.372121 
470.000000	12.106409 
470.500000	11.863196 
471.000000	11.633151 
471.500000	11.401696 
472.000000	11.203022 
472.500000	10.991704 
473.000000	10.734643 
473.500000	10.418856 
474.000000	10.133712 
474.500000	9.916053  
475.000000	9.751568  
475.500000	9.591363  
476.000000	9.395901  
476.500000	9.178363  
477.000000	8.958803  
477.500000	8.754757  
478.000000	8.569704  
478.500000	8.432053  
479.000000	8.339030  
479.500000	8.232689  
480.000000	8.049984  
480.500000	7.804583  
481.000000	7.608833  
481.500000	7.500878  
482.000000	7.402318  
482.500000	7.235242  
483.000000	7.026780  
483.500000	6.849704  
484.000000	6.717446  
484.500000	6.606446  
485.000000	6.496575  
485.500000	6.380651  
486.000000	6.270227  
486.500000	6.154901  
487.000000	6.029568  
487.500000	5.925378  
488.000000	5.845606  
488.500000	5.782734  
489.000000	5.686530  
489.500000	5.590590  
490.000000	5.490613  
490.500000	5.394568  
491.000000	5.288545  
491.500000	5.198143  
492.000000	5.090901  
492.500000	4.959969  
493.000000	4.838310  
493.500000	4.779643  
494.000000	4.766613  
494.500000	4.743484  
495.000000	4.673575  
495.500000	4.571121  
496.000000	4.477416  
496.500000	4.415606  
497.000000	4.370825  
497.500000	4.316037  
498.000000	4.248666  
498.500000	4.183590  
499.000000	4.119575  
499.500000	4.068287  
500.000000	4.022416  
500.500000	4.001318  
501.000000	3.972840  
501.500000	3.920136  
502.000000	3.825651  
502.500000	3.733272  
503.000000	3.665628  
503.500000	3.614507  
504.000000	3.567446  
504.500000	3.520962  
505.000000	3.476931  
505.500000	3.415477  
506.000000	3.376098  
506.500000	3.353310  
507.000000	3.340143  
507.500000	3.288803  
508.000000	3.236280  
508.500000	3.184590  
509.000000	3.145704  
509.500000	3.083500  
510.000000	3.030113  
510.500000	2.997939  
511.000000	2.993909  
511.500000	2.967848  
512.000000	2.918000  
512.500000	2.861757  
513.000000	2.836863  
513.500000	2.816575  
514.000000	2.768477  
514.500000	2.704621  
515.000000	2.650598  
515.500000	2.618507  
516.000000	2.585628  
516.500000	2.541007  
517.000000	2.474431  
517.500000	2.421530  
518.000000	2.405719  
518.500000	2.418977  
519.000000	2.424765  
519.500000	2.381984  
520.000000	2.321931  
520.500000	2.273886  
521.000000	2.250007  
521.500000	2.212333  
522.000000	2.173893  
522.500000	2.151507  
523.000000	2.151484  
523.500000	2.131863  
524.000000	2.076083  
524.500000	2.009022  
525.000000	1.967295  
525.500000	1.958250  
526.000000	1.956916  
526.500000	1.931734  
527.000000	1.886825  
527.500000	1.856719  
528.000000	1.852742  
528.500000	1.860303  
529.000000	1.841113  
529.500000	1.806174  
530.000000	1.765030  
530.500000	1.729356  
531.000000	1.687000  
531.500000	1.652083  
532.000000	1.625522  
532.500000	1.617704  
533.000000	1.610515  
533.500000	1.592681  
534.000000	1.574416  
534.500000	1.555106  
535.000000	1.527666  
535.500000	1.484181  
536.000000	1.444575  
536.500000	1.429098  
537.000000	1.429386  
537.500000	1.411856  
538.000000	1.373606  
538.500000	1.341340  
539.000000	1.329340  
539.500000	1.338401  
540.000000	1.345060  
540.500000	1.330818  
541.000000	1.296386  
541.500000	1.257795  
542.000000	1.234522  
542.500000	1.217053  
543.000000	1.205621  
543.500000	1.190840  
544.000000	1.172371  
544.500000	1.148590  
545.000000	1.135409  
545.500000	1.125363  
546.000000	1.120856  
546.500000	1.115606  
547.000000	1.109840  
547.500000	1.092371  
548.000000	1.068060  
548.500000	1.047166  
549.000000	1.031121  
549.500000	1.012484  
550.000000	1.000310  
550.500000	0.999507  
551.000000	0.992424  
551.500000	0.978287  
552.000000	0.961439  
552.500000	0.949166  
553.000000	0.938696  
553.500000	0.929090  
554.000000	0.923189  
554.500000	0.911636  
555.000000	0.881613  
555.500000	0.846015  
556.000000	0.827393  
556.500000	0.835068  
557.000000	0.849143  
557.500000	0.849583  
558.000000	0.834621  
558.500000	0.824893  
559.000000	0.820583  
559.500000	0.806204  
560.000000	0.775090  
560.500000	0.743553  
561.000000	0.734606  
561.500000	0.739431  
562.000000	0.731499  
562.500000	0.711727  
563.000000	0.705121  
563.500000	0.714765  
564.000000	0.718590  
564.500000	0.704113  
565.000000	0.687378  
565.500000	0.684750  
566.000000	0.678310  
566.500000	0.662689  
567.000000	0.641053  
567.500000	0.639765  
568.000000	0.641856  
568.500000	0.635621  
569.000000	0.613931  
569.500000	0.602931  
570.000000	0.604204  
570.500000	0.611583  
571.000000	0.606924  
571.500000	0.599287  
572.000000	0.587598  
572.500000	0.583446  
573.000000	0.572295  
573.500000	0.562553  
574.000000	0.541409  
574.500000	0.534560  
575.000000	0.534454  
575.500000	0.537856  
576.000000	0.527553  
576.500000	0.509765  
577.000000	0.496189  
577.500000	0.489893  
578.000000	0.484969  
578.500000	0.484681  
579.000000	0.490401  
579.500000	0.490909  
580.000000	0.473295  
580.500000	0.455007  
581.000000	0.445409  
581.500000	0.442507  
582.000000	0.439257  
582.500000	0.428492  
583.000000	0.424469  
583.500000	0.420159  
584.000000	0.424174  
584.500000	0.420174  
585.000000	0.420196  
585.500000	0.415886  
586.000000	0.422174  
586.500000	0.419946  
587.000000	0.409045  
587.500000	0.395174  
588.000000	0.387409  
588.500000	0.382863  
589.000000	0.379613  
589.500000	0.378931  
590.000000	0.381386  
590.500000	0.383318  
591.000000	0.381060  
591.500000	0.377962  
592.000000	0.372287  
592.500000	0.360015  
593.000000	0.345068  
593.500000	0.338750  
594.000000	0.344371  
594.500000	0.351356  
595.000000	0.346840  
595.500000	0.327840  
596.000000	0.309727  
596.500000	0.306075  
597.000000	0.310143  
597.500000	0.304484  
598.000000	0.291204  
598.500000	0.287522  
599.000000	0.296575  
599.500000	0.301325  
600.000000	0.290000  

