PE FL                   SPECTRUM    ASCII       PEDS        1.60        
  -1
01#129.SP
02/03/16
02:15:41.00
02/03/16
02:17:25.00


390.000000
1









LS55
430.00
5.00
5.00
SCAN
1
20
100
100
0
100
0
0
0
1
7
ON
410 390 
1 0 0
#HDR
-1
-1
#GR
NM

0.00002384185791015625
0.0
230.000000
0.500000
321
8
58.491053
0.799318
#DATA
230.000000	1.271000  
230.500000	1.085204  
231.000000	0.993075  
231.500000	1.000409  
232.000000	1.023840  
232.500000	1.010090  
233.000000	0.980340  
233.500000	0.965750  
234.000000	0.941742  
234.500000	0.888143  
235.000000	0.843742  
235.500000	0.840909  
236.000000	0.871166  
236.500000	0.900734  
237.000000	0.896098  
237.500000	0.877249  
238.000000	0.843128  
238.500000	0.827204  
239.000000	0.809515  
239.500000	0.800590  
240.000000	0.799318  
240.500000	0.826037  
241.000000	0.851606  
241.500000	0.856181  
242.000000	0.840833  
242.500000	0.822939  
243.000000	0.835219  
243.500000	0.879272  
244.000000	0.932363  
244.500000	0.979863  
245.000000	1.009666  
245.500000	1.037477  
246.000000	1.074606  
246.500000	1.133416  
247.000000	1.184909  
247.500000	1.221871  
248.000000	1.251196  
248.500000	1.308151  
249.000000	1.393060  
249.500000	1.481098  
250.000000	1.575113  
250.500000	1.683719  
251.000000	1.826234  
251.500000	1.970090  
252.000000	2.092909  
252.500000	2.187575  
253.000000	2.295515  
253.500000	2.453446  
254.000000	2.622022  
254.500000	2.812931  
255.000000	2.992227  
255.500000	3.189386  
256.000000	3.372386  
256.500000	3.595371  
257.000000	3.786636  
257.500000	3.933462  
258.000000	4.022750  
258.500000	4.102931  
259.000000	4.198939  
259.500000	4.272530  
260.000000	4.310393  
260.500000	4.298060  
261.000000	4.298181  
261.500000	4.325340  
262.000000	4.420590  
262.500000	4.524053  
263.000000	4.585068  
263.500000	4.636613  
264.000000	4.699712  
264.500000	4.774242  
265.000000	4.812575  
265.500000	4.832560  
266.000000	4.798037  
266.500000	4.706757  
267.000000	4.610151  
267.500000	4.585439  
268.000000	4.621378  
268.500000	4.588575  
269.000000	4.502280  
269.500000	4.433030  
270.000000	4.428409  
270.500000	4.410303  
271.000000	4.352083  
271.500000	4.278765  
272.000000	4.219643  
272.500000	4.205878  
273.000000	4.199189  
273.500000	4.192265  
274.000000	4.167939  
274.500000	4.176621  
275.000000	4.231060  
275.500000	4.360727  
276.000000	4.477628  
276.500000	4.578128  
277.000000	4.667515  
277.500000	4.807780  
278.000000	4.935424  
278.500000	5.079242  
279.000000	5.242477  
279.500000	5.500765  
280.000000	5.756318  
280.500000	5.974250  
281.000000	6.142560  
281.500000	6.369803  
282.000000	6.642204  
282.500000	6.975090  
283.000000	7.294348  
283.500000	7.614507  
284.000000	7.900924  
284.500000	8.199901  
285.000000	8.435848  
285.500000	8.664530  
286.000000	8.859431  
286.500000	9.111174  
287.000000	9.345939  
287.500000	9.619128  
288.000000	9.898598  
288.500000	10.241863 
289.000000	10.517704 
289.500000	10.744856 
290.000000	10.924984 
290.500000	11.094462 
291.000000	11.231143 
291.500000	11.392833 
292.000000	11.637553 
292.500000	11.864795 
293.000000	12.019515 
293.500000	12.111265 
294.000000	12.274643 
294.500000	12.446810 
295.000000	12.508325 
295.500000	12.476856 
296.000000	12.490030 
296.500000	12.578765 
297.000000	12.638106 
297.500000	12.597280 
298.000000	12.468212 
298.500000	12.359522 
299.000000	12.292090 
299.500000	12.229545 
300.000000	12.141439 
300.500000	12.059712 
301.000000	11.987462 
301.500000	11.883439 
302.000000	11.683984 
302.500000	11.422613 
303.000000	11.165878 
303.500000	10.916303 
304.000000	10.684583 
304.500000	10.451340 
305.000000	10.222962 
305.500000	9.985901  
306.000000	9.731265  
306.500000	9.449045  
307.000000	9.157166  
307.500000	8.902303  
308.000000	8.640727  
308.500000	8.363916  
309.000000	8.040696  
309.500000	7.756568  
310.000000	7.492454  
310.500000	7.228590  
311.000000	6.930303  
311.500000	6.637856  
312.000000	6.335424  
312.500000	6.035946  
313.000000	5.760363  
313.500000	5.502537  
314.000000	5.233969  
314.500000	4.937378  
315.000000	4.691280  
315.500000	4.519628  
316.000000	4.362492  
316.500000	4.181106  
317.000000	4.007272  
317.500000	3.892803  
318.000000	3.787151  
318.500000	3.688492  
319.000000	3.588651  
319.500000	3.538780  
320.000000	3.518492  
320.500000	3.477181  
321.000000	3.400651  
321.500000	3.333689  
322.000000	3.356984  
322.500000	3.421121  
323.000000	3.505371  
323.500000	3.576909  
324.000000	3.693348  
324.500000	3.826651  
325.000000	3.970401  
325.500000	4.107856  
326.000000	4.284325  
326.500000	4.481765  
327.000000	4.724507  
327.500000	5.015613  
328.000000	5.397590  
328.500000	5.854280  
329.000000	6.387856  
329.500000	6.952484  
330.000000	7.568651  
330.500000	8.243325  
331.000000	9.005856  
331.500000	9.843575  
332.000000	10.773500 
332.500000	11.770712 
333.000000	12.864424 
333.500000	14.058121 
334.000000	15.365946 
334.500000	16.774750 
335.000000	18.249583 
335.500000	19.729772 
336.000000	21.203992 
336.500000	22.744250 
337.000000	24.386045 
337.500000	26.092553 
338.000000	27.730818 
338.500000	29.285166 
339.000000	30.804219 
339.500000	32.324409 
340.000000	33.792015 
340.500000	35.253098 
341.000000	36.627265 
341.500000	37.992696 
342.000000	39.290840 
342.500000	40.586143 
343.000000	41.735787 
343.500000	42.800356 
344.000000	43.784325 
344.500000	44.796272 
345.000000	45.726856 
345.500000	46.576507 
346.000000	47.343848 
346.500000	48.072219 
347.000000	48.732545 
347.500000	49.363121 
348.000000	49.897909 
348.500000	50.382037 
349.000000	50.861954 
349.500000	51.409015 
350.000000	51.934621 
350.500000	52.382916 
351.000000	52.739181 
351.500000	53.026681 
352.000000	53.279409 
352.500000	53.571780 
353.000000	54.026750 
353.500000	54.477984 
354.000000	54.826992 
354.500000	55.068409 
355.000000	55.400787 
355.500000	55.708181 
356.000000	55.910621 
356.500000	55.967196 
357.000000	56.214537 
357.500000	56.624484 
358.000000	57.074621 
358.500000	57.328856 
359.000000	57.477719 
359.500000	57.587628 
360.000000	57.790924 
360.500000	58.033833 
361.000000	58.267166 
361.500000	58.420257 
362.000000	58.444462 
362.500000	58.462810 
363.000000	58.443484 
363.500000	58.489401 
364.000000	58.491053 
364.500000	58.485659 
365.000000	58.375787 
365.500000	58.299469 
366.000000	58.162992 
366.500000	58.019856 
367.000000	57.763416 
367.500000	57.413643 
368.000000	56.998386 
368.500000	56.542136 
369.000000	56.012022 
369.500000	55.386439 
370.000000	54.692530 
370.500000	53.831151 
371.000000	52.923878 
371.500000	52.021636 
372.000000	51.232931 
372.500000	50.338590 
373.000000	49.236310 
373.500000	47.897530 
374.000000	46.512378 
374.500000	45.102689 
375.000000	43.664030 
375.500000	42.214621 
376.000000	40.792924 
376.500000	39.403515 
377.000000	37.978901 
377.500000	36.477386 
378.000000	34.909431 
378.500000	33.306545 
379.000000	31.633446 
379.500000	29.982606 
380.000000	28.393030 
380.500000	26.823151 
381.000000	25.207015 
381.500000	23.552484 
382.000000	21.922075 
382.500000	20.400628 
383.000000	18.945371 
383.500000	17.578378 
384.000000	16.276257 
384.500000	15.090250 
385.000000	13.916840 
385.500000	12.782606 
386.000000	11.665636 
386.500000	10.635962 
387.000000	9.622719  
387.500000	8.674227  
388.000000	7.831704  
388.500000	7.088053  
389.000000	6.418530  
389.500000	5.796356  
390.000000	5.230000  

