PE FL                   SPECTRUM    ASCII       PEDS        1.60        
  -1
01#133.SP
02/03/16
02:29:31.00
02/03/16
02:31:22.00


410.000000
1









LS55
440.00
5.00
5.00
SCAN
1
20
100
100
0
100
0
0
0
1
7
ON
425 410 
1 0 0
#HDR
-1
-1
#GR
NM

0.00002384185791015625
0.0
240.000000
0.500000
341
8
46.258066
0.459000
#DATA
240.000000	0.560000  
240.500000	0.672399  
241.000000	0.697866  
241.500000	0.716733  
242.000000	0.741066  
242.500000	0.739600  
243.000000	0.750533  
243.500000	0.788133  
244.000000	0.832199  
244.500000	0.865799  
245.000000	0.885866  
245.500000	0.894666  
246.000000	0.883400  
246.500000	0.895866  
247.000000	0.967199  
247.500000	1.046066  
248.000000	1.095066  
248.500000	1.159400  
249.000000	1.211866  
249.500000	1.268933  
250.000000	1.350000  
250.500000	1.465733  
251.000000	1.631733  
251.500000	1.728733  
252.000000	1.710600  
252.500000	1.787666  
253.000000	1.966933  
253.500000	2.104066  
254.000000	2.199666  
254.500000	2.314000  
255.000000	2.437200  
255.500000	2.611266  
256.000000	2.817533  
256.500000	2.931400  
257.000000	2.988600  
257.500000	3.154066  
258.000000	3.364200  
258.500000	3.455600  
259.000000	3.480666  
259.500000	3.533200  
260.000000	3.580400  
260.500000	3.595533  
261.000000	3.550600  
261.500000	3.529266  
262.000000	3.560800  
262.500000	3.652533  
263.000000	3.799400  
263.500000	3.855466  
264.000000	3.867133  
264.500000	3.910400  
265.000000	3.881533  
265.500000	3.880466  
266.000000	3.918266  
266.500000	3.863266  
267.000000	3.838266  
267.500000	3.875933  
268.000000	3.781066  
268.500000	3.620333  
269.000000	3.574266  
269.500000	3.628800  
270.000000	3.641733  
270.500000	3.575400  
271.000000	3.534666  
271.500000	3.479733  
272.000000	3.411466  
272.500000	3.400400  
273.000000	3.383800  
273.500000	3.417200  
274.000000	3.436000  
274.500000	3.422466  
275.000000	3.480000  
275.500000	3.558600  
276.000000	3.590666  
276.500000	3.614200  
277.000000	3.689533  
277.500000	3.833466  
278.000000	3.906533  
278.500000	3.950666  
279.000000	4.114800  
279.500000	4.350933  
280.000000	4.536066  
280.500000	4.673200  
281.000000	4.836399  
281.500000	5.110266  
282.000000	5.363333  
282.500000	5.542733  
283.000000	5.783200  
283.500000	6.054666  
284.000000	6.283266  
284.500000	6.487600  
285.000000	6.669333  
285.500000	6.846933  
286.000000	7.055466  
286.500000	7.316266  
287.000000	7.486800  
287.500000	7.592133  
288.000000	7.741466  
288.500000	7.989333  
289.000000	8.297200  
289.500000	8.478400  
290.000000	8.537200  
290.500000	8.688866  
291.000000	8.877933  
291.500000	9.028533  
292.000000	9.184933  
292.500000	9.294333  
293.000000	9.341733  
293.500000	9.462733  
294.000000	9.631800  
294.500000	9.682333  
295.000000	9.692266  
295.500000	9.798200  
296.000000	9.903999  
296.500000	9.953599  
297.000000	9.991199  
297.500000	9.946666  
298.000000	9.908133  
298.500000	9.918533  
299.000000	9.837000  
299.500000	9.682599  
300.000000	9.544400  
300.500000	9.502866  
301.000000	9.472266  
301.500000	9.365666  
302.000000	9.212733  
302.500000	9.074333  
303.000000	9.042466  
303.500000	8.941866  
304.000000	8.602599  
304.500000	8.367866  
305.000000	8.267333  
305.500000	8.059066  
306.000000	7.762133  
306.500000	7.516533  
307.000000	7.347600  
307.500000	7.125799  
308.000000	6.847466  
308.500000	6.624800  
309.000000	6.459666  
309.500000	6.272266  
310.000000	6.031000  
310.500000	5.789866  
311.000000	5.579933  
311.500000	5.314800  
312.000000	5.015333  
312.500000	4.824600  
313.000000	4.705200  
313.500000	4.530466  
314.000000	4.366266  
314.500000	4.238666  
315.000000	4.045333  
315.500000	3.827066  
316.000000	3.652866  
316.500000	3.522733  
317.000000	3.432866  
317.500000	3.401866  
318.000000	3.329733  
318.500000	3.206800  
319.000000	3.104066  
319.500000	3.019800  
320.000000	3.013866  
320.500000	3.078266  
321.000000	3.063866  
321.500000	3.003933  
322.000000	3.026800  
322.500000	3.096133  
323.000000	3.164733  
323.500000	3.257666  
324.000000	3.368600  
324.500000	3.456800  
325.000000	3.523333  
325.500000	3.632800  
326.000000	3.829400  
326.500000	4.023933  
327.000000	4.192933  
327.500000	4.452066  
328.000000	4.783066  
328.500000	5.102466  
329.000000	5.418799  
329.500000	5.817200  
330.000000	6.298600  
330.500000	6.838533  
331.000000	7.433866  
331.500000	8.078400  
332.000000	8.783400  
332.500000	9.603200  
333.000000	10.470600 
333.500000	11.340133 
334.000000	12.353400 
334.500000	13.499133 
335.000000	14.563466 
335.500000	15.634733 
336.000000	16.830666 
336.500000	18.033333 
337.000000	19.316866 
337.500000	20.650466 
338.000000	21.890733 
338.500000	23.197000 
339.000000	24.470733 
339.500000	25.547000 
340.000000	26.535866 
340.500000	27.521333 
341.000000	28.659666 
341.500000	29.838533 
342.000000	30.828600 
342.500000	31.828733 
343.000000	32.839133 
343.500000	33.636466 
344.000000	34.387133 
344.500000	35.229733 
345.000000	35.997200 
345.500000	36.591000 
346.000000	37.094466 
346.500000	37.454266 
347.000000	37.965400 
347.500000	38.769733 
348.000000	39.402066 
348.500000	39.711666 
349.000000	39.989000 
349.500000	40.358733 
350.000000	40.797800 
350.500000	41.156800 
351.000000	41.547400 
351.500000	41.979066 
352.000000	42.099866 
352.500000	42.033200 
353.000000	42.261533 
353.500000	42.632266 
354.000000	42.966733 
354.500000	43.310933 
355.000000	43.521000 
355.500000	43.574333 
356.000000	43.608933 
356.500000	43.775066 
357.000000	44.065933 
357.500000	44.302933 
358.000000	44.573600 
358.500000	44.841933 
359.000000	45.029533 
359.500000	45.281800 
360.000000	45.627333 
360.500000	45.876200 
361.000000	45.958533 
361.500000	46.075933 
362.000000	46.165933 
362.500000	46.043266 
363.000000	45.925333 
363.500000	45.962599 
364.000000	46.074333 
364.500000	46.258066 
365.000000	46.248866 
365.500000	46.002000 
366.000000	45.959200 
366.500000	46.042666 
367.000000	45.758933 
367.500000	45.336200 
368.000000	45.115933 
368.500000	44.777666 
369.000000	44.244800 
369.500000	43.801266 
370.000000	43.353600 
370.500000	42.752599 
371.000000	42.258333 
371.500000	41.678999 
372.000000	40.724066 
372.500000	39.812333 
373.000000	39.160933 
373.500000	38.311000 
374.000000	37.294533 
374.500000	36.308333 
375.000000	35.274866 
375.500000	34.079866 
376.000000	32.869733 
376.500000	31.764266 
377.000000	30.646000 
377.500000	29.514800 
378.000000	28.323666 
378.500000	26.921866 
379.000000	25.482600 
379.500000	24.269400 
380.000000	23.091733 
380.500000	21.778400 
381.000000	20.505866 
381.500000	19.304466 
382.000000	18.090933 
382.500000	16.897133 
383.000000	15.720266 
383.500000	14.667733 
384.000000	13.790400 
384.500000	12.825133 
385.000000	11.751000 
385.500000	10.745200 
386.000000	9.833333  
386.500000	8.949399  
387.000000	8.157800  
387.500000	7.400999  
388.000000	6.688600  
388.500000	6.081933  
389.000000	5.568933  
389.500000	5.045333  
390.000000	4.558533  
390.500000	4.186466  
391.000000	3.872666  
391.500000	3.503333  
392.000000	3.167533  
392.500000	2.894400  
393.000000	2.626200  
393.500000	2.384933  
394.000000	2.168400  
394.500000	1.955866  
395.000000	1.786733  
395.500000	1.654533  
396.000000	1.538933  
396.500000	1.437000  
397.000000	1.303866  
397.500000	1.156066  
398.000000	1.089800  
398.500000	1.056266  
399.000000	0.979266  
399.500000	0.913133  
400.000000	0.862600  
400.500000	0.818400  
401.000000	0.781866  
401.500000	0.749866  
402.000000	0.723733  
402.500000	0.705600  
403.000000	0.693000  
403.500000	0.668000  
404.000000	0.634533  
404.500000	0.641133  
405.000000	0.647733  
405.500000	0.621600  
406.000000	0.584933  
406.500000	0.551866  
407.000000	0.543933  
407.500000	0.566466  
408.000000	0.576333  
408.500000	0.572466  
409.000000	0.580466  
409.500000	0.557266  
410.000000	0.459000  

