PE FL                   SPECTRUM    ASCII       PEDS        1.60        
  -1
01#134.SP
02/03/16
02:32:10.00
02/03/16
02:36:13.00


420.000000
1









LS55
435.00
2.50
2.50
SCAN
1
20
100
100
0
50
0
0
0
1
7
ON
440 410 
1 0 0
#HDR
-1
-1
#GR
NM

0.00002384185791015625
0.0
230.000000
0.500000
381
8
15.282333
-0.004000
#DATA
230.000000	0.094000  
230.500000	0.012733  
231.000000	0.009599  
231.500000	0.024866  
232.000000	0.008533  
232.500000	-0.002333 
233.000000	0.015466  
233.500000	0.025533  
234.000000	0.025866  
234.500000	0.023533  
235.000000	0.009733  
235.500000	-0.004000 
236.000000	0.000133  
236.500000	0.033133  
237.000000	0.054800  
237.500000	0.053800  
238.000000	0.047266  
238.500000	0.020200  
239.000000	0.008866  
239.500000	0.021266  
240.000000	0.008466  
240.500000	0.019600  
241.000000	0.034600  
241.500000	0.024200  
242.000000	0.024600  
242.500000	0.023733  
243.000000	0.016600  
243.500000	0.027733  
244.000000	0.034866  
244.500000	0.047800  
245.000000	0.069866  
245.500000	0.071466  
246.000000	0.072266  
246.500000	0.105800  
247.000000	0.110733  
247.500000	0.079266  
248.000000	0.098999  
248.500000	0.135000  
249.000000	0.120266  
249.500000	0.110000  
250.000000	0.150133  
250.500000	0.183533  
251.000000	0.190666  
251.500000	0.197066  
252.000000	0.189000  
252.500000	0.226666  
253.000000	0.336800  
253.500000	0.365800  
254.000000	0.368800  
254.500000	0.369333  
255.000000	0.398333  
255.500000	0.512133  
256.000000	0.619666  
256.500000	0.622066  
257.000000	0.688199  
257.500000	0.833933  
258.000000	0.932933  
258.500000	0.963266  
259.000000	1.014866  
259.500000	1.043200  
260.000000	1.024200  
260.500000	0.863933  
261.000000	0.608466  
261.500000	0.599066  
262.000000	0.830133  
262.500000	0.840266  
263.000000	0.717533  
263.500000	0.814199  
264.000000	0.989666  
264.500000	1.044800  
265.000000	1.100133  
265.500000	1.068533  
266.000000	0.878333  
266.500000	0.783733  
267.000000	0.880066  
267.500000	0.909866  
268.000000	1.003466  
268.500000	1.086400  
269.000000	0.891666  
269.500000	0.754199  
270.000000	0.762333  
270.500000	0.709933  
271.000000	0.838399  
271.500000	1.030333  
272.000000	1.016333  
272.500000	0.907200  
273.000000	0.857333  
273.500000	0.827466  
274.000000	0.787866  
274.500000	0.865866  
275.000000	0.947666  
275.500000	0.863933  
276.000000	0.844266  
276.500000	0.907466  
277.000000	0.950733  
277.500000	1.013866  
278.000000	1.023933  
278.500000	1.018400  
279.000000	1.137666  
279.500000	1.279133  
280.000000	1.373000  
280.500000	1.463933  
281.000000	1.489200  
281.500000	1.462600  
282.000000	1.496466  
282.500000	1.600200  
283.000000	1.736066  
283.500000	1.891533  
284.000000	1.936400  
284.500000	1.993333  
285.000000	2.176266  
285.500000	2.190866  
286.000000	2.151600  
286.500000	2.351266  
287.000000	2.582733  
287.500000	2.715533  
288.000000	2.684666  
288.500000	2.512933  
289.000000	2.570466  
289.500000	2.783400  
290.000000	2.843866  
290.500000	2.843733  
291.000000	2.932266  
291.500000	3.008800  
292.000000	2.961600  
292.500000	2.965066  
293.000000	3.100866  
293.500000	3.109200  
294.000000	3.092466  
294.500000	3.136133  
295.000000	3.130733  
295.500000	3.107933  
296.000000	3.169266  
296.500000	3.284666  
297.000000	3.332000  
297.500000	3.251800  
298.000000	3.189200  
298.500000	3.230600  
299.000000	3.247800  
299.500000	3.130933  
300.000000	3.124400  
300.500000	3.193733  
301.000000	3.116333  
301.500000	3.018200  
302.000000	2.952400  
302.500000	2.913400  
303.000000	2.860800  
303.500000	2.698533  
304.000000	2.579133  
304.500000	2.646733  
305.000000	2.675133  
305.500000	2.575866  
306.000000	2.510666  
306.500000	2.530200  
307.000000	2.479933  
307.500000	2.364133  
308.000000	2.277466  
308.500000	2.268333  
309.000000	2.187400  
309.500000	2.062666  
310.000000	2.024800  
310.500000	2.010933  
311.000000	1.882733  
311.500000	1.725066  
312.000000	1.612400  
312.500000	1.489066  
313.000000	1.416066  
313.500000	1.432600  
314.000000	1.377200  
314.500000	1.219466  
315.000000	1.163066  
315.500000	1.166666  
316.000000	1.109933  
316.500000	1.041266  
317.000000	1.048066  
317.500000	1.075333  
318.000000	1.032266  
318.500000	0.913933  
319.000000	0.811066  
319.500000	0.764866  
320.000000	0.788933  
320.500000	0.818066  
321.000000	0.840199  
321.500000	0.931266  
322.000000	0.972000  
322.500000	0.974666  
323.000000	1.030333  
323.500000	1.005933  
324.000000	0.875000  
324.500000	0.860200  
325.000000	0.977533  
325.500000	1.052466  
326.000000	1.088266  
326.500000	1.179466  
327.000000	1.253333  
327.500000	1.297866  
328.000000	1.401800  
328.500000	1.506466  
329.000000	1.585400  
329.500000	1.659600  
330.000000	1.793733  
330.500000	1.991400  
331.000000	2.154866  
331.500000	2.357266  
332.000000	2.642866  
332.500000	2.851533  
333.000000	3.150200  
333.500000	3.554133  
334.000000	3.906266  
334.500000	4.216666  
335.000000	4.588400  
335.500000	5.055133  
336.000000	5.415066  
336.500000	5.729666  
337.000000	6.188133  
337.500000	6.680400  
338.000000	7.125933  
338.500000	7.465666  
339.000000	7.760266  
339.500000	8.226466  
340.000000	8.705066  
340.500000	8.985799  
341.000000	9.313866  
341.500000	9.783933  
342.000000	10.017866 
342.500000	10.194266 
343.000000	10.491600 
343.500000	10.830466 
344.000000	11.292000 
344.500000	11.711466 
345.000000	11.954466 
345.500000	12.087133 
346.000000	12.008000 
346.500000	11.964733 
347.000000	12.281333 
347.500000	12.659333 
348.000000	12.743666 
348.500000	12.690333 
349.000000	12.777466 
349.500000	13.058333 
350.000000	13.313866 
350.500000	13.503266 
351.000000	13.508600 
351.500000	13.319666 
352.000000	13.427200 
352.500000	13.719133 
353.000000	13.752333 
353.500000	13.726200 
354.000000	13.961400 
354.500000	14.327533 
355.000000	14.379933 
355.500000	14.136600 
356.000000	14.182866 
356.500000	14.289933 
357.000000	14.276266 
357.500000	14.332000 
358.000000	14.459600 
358.500000	14.654600 
359.000000	14.808400 
359.500000	14.644333 
360.000000	14.724400 
360.500000	14.854466 
361.000000	14.728400 
361.500000	14.722800 
362.000000	14.732200 
362.500000	14.633733 
363.000000	14.736733 
363.500000	14.858800 
364.000000	14.845266 
364.500000	14.774133 
365.000000	14.850000 
365.500000	15.051400 
366.000000	15.234200 
366.500000	15.282333 
367.000000	14.891133 
367.500000	14.673933 
368.000000	14.653466 
368.500000	14.208066 
369.000000	13.936133 
369.500000	14.024133 
370.000000	13.935000 
370.500000	13.890600 
371.000000	13.744333 
371.500000	13.301466 
372.000000	13.091666 
372.500000	13.093466 
373.000000	12.767600 
373.500000	12.222400 
374.000000	11.930466 
374.500000	11.718200 
375.000000	11.254400 
375.500000	10.694066 
376.000000	10.493266 
376.500000	10.314866 
377.000000	9.842333  
377.500000	9.416200  
378.000000	9.113733  
378.500000	8.527600  
379.000000	7.890200  
379.500000	7.423600  
380.000000	7.118800  
380.500000	6.840333  
381.000000	6.475666  
381.500000	6.066999  
382.000000	5.572733  
382.500000	5.019400  
383.000000	4.685599  
383.500000	4.467066  
384.000000	4.177333  
384.500000	3.800000  
385.000000	3.416066  
385.500000	3.102666  
386.000000	2.773400  
386.500000	2.477533  
387.000000	2.309000  
387.500000	2.152866  
388.000000	1.965733  
388.500000	1.805866  
389.000000	1.633866  
389.500000	1.492200  
390.000000	1.354066  
390.500000	1.160933  
391.000000	0.997600  
391.500000	0.919333  
392.000000	0.833200  
392.500000	0.718066  
393.000000	0.652000  
393.500000	0.613866  
394.000000	0.584400  
394.500000	0.546933  
395.000000	0.449800  
395.500000	0.360200  
396.000000	0.323066  
396.500000	0.289666  
397.000000	0.242866  
397.500000	0.223133  
398.000000	0.225800  
398.500000	0.206466  
399.000000	0.155266  
399.500000	0.089399  
400.000000	0.074066  
400.500000	0.114000  
401.000000	0.110666  
401.500000	0.100000  
402.000000	0.112066  
402.500000	0.106066  
403.000000	0.086666  
403.500000	0.088000  
404.000000	0.106533  
404.500000	0.104933  
405.000000	0.069266  
405.500000	0.049666  
406.000000	0.069666  
406.500000	0.081933  
407.000000	0.077600  
407.500000	0.076400  
408.000000	0.078733  
408.500000	0.072133  
409.000000	0.053933  
409.500000	0.032666  
410.000000	0.047466  
410.500000	0.060200  
411.000000	0.036866  
411.500000	0.022400  
412.000000	0.064666  
412.500000	0.095066  
413.000000	0.074533  
413.500000	0.055133  
414.000000	0.058733  
414.500000	0.062466  
415.000000	0.072866  
415.500000	0.091533  
416.000000	0.092999  
416.500000	0.056000  
417.000000	0.049933  
417.500000	0.086066  
418.000000	0.097733  
418.500000	0.094066  
419.000000	0.099933  
419.500000	0.196933  
420.000000	0.476999  

