PE FL                   SPECTRUM    ASCII       PEDS        1.60        
  -1
01#128.SP
02/03/16
02:11:28.00
02/03/16
02:15:04.00


390.000000
1









LS55
410.00
2.50
2.50
SCAN
1
20
100
100
0
50
0
0
0
1
7
ON
690 355 
1 0 0
#HDR
-1
-1
#GR
NM

0.00002384185791015625
0.0
220.000000
0.500000
341
8
18.586000
-0.188000
#DATA
220.000000	-0.188000 
220.500000	0.451000  
221.000000	0.000000  
221.500000	0.000000  
222.000000	0.000000  
222.500000	0.000000  
223.000000	0.000000  
223.500000	0.019000  
224.000000	0.075000  
224.500000	0.015000  
225.000000	0.070999  
225.500000	0.069000  
226.000000	0.085999  
226.500000	0.057000  
227.000000	0.132000  
227.500000	0.155000  
228.000000	0.156000  
228.500000	0.180000  
229.000000	0.119000  
229.500000	0.075000  
230.000000	0.026000  
230.500000	0.000000  
231.000000	0.019000  
231.500000	0.073000  
232.000000	0.020000  
232.500000	0.086999  
233.000000	0.059000  
233.500000	0.097000  
234.000000	0.077000  
234.500000	0.010000  
235.000000	0.040000  
235.500000	0.000000  
236.000000	0.021000  
236.500000	0.082000  
237.000000	0.000000  
237.500000	0.000000  
238.000000	0.000000  
238.500000	0.000000  
239.000000	0.000000  
239.500000	0.000000  
240.000000	0.015000  
240.500000	0.056000  
241.000000	0.007000  
241.500000	0.032000  
242.000000	0.039000  
242.500000	0.052000  
243.000000	0.000000  
243.500000	0.015000  
244.000000	0.070000  
244.500000	0.051000  
245.000000	0.034000  
245.500000	0.170000  
246.000000	0.178000  
246.500000	0.183000  
247.000000	0.140000  
247.500000	0.086999  
248.000000	0.070000  
248.500000	0.115000  
249.000000	0.095000  
249.500000	0.181000  
250.000000	0.198000  
250.500000	0.345000  
251.000000	0.246000  
251.500000	0.337000  
252.000000	0.333000  
252.500000	0.281000  
253.000000	0.263000  
253.500000	0.262000  
254.000000	0.257000  
254.500000	0.454000  
255.000000	0.743000  
255.500000	0.474000  
256.000000	0.477000  
256.500000	0.612000  
257.000000	0.861000  
257.500000	1.169000  
258.000000	1.099000  
258.500000	1.075000  
259.000000	1.237000  
259.500000	1.270000  
260.000000	1.023000  
260.500000	1.001000  
261.000000	1.131000  
261.500000	1.283000  
262.000000	1.081000  
262.500000	1.114000  
263.000000	1.133000  
263.500000	1.068000  
264.000000	1.496000  
264.500000	1.177000  
265.000000	1.202000  
265.500000	1.532000  
266.000000	1.164000  
266.500000	1.155000  
267.000000	1.247000  
267.500000	1.259000  
268.000000	1.120000  
268.500000	1.007000  
269.000000	1.400000  
269.500000	1.106000  
270.000000	1.143000  
270.500000	0.883000  
271.000000	1.077000  
271.500000	0.972000  
272.000000	0.945000  
272.500000	1.087000  
273.000000	0.912000  
273.500000	1.185000  
274.000000	1.025000  
274.500000	1.019000  
275.000000	1.132000  
275.500000	1.149000  
276.000000	1.095000  
276.500000	1.307000  
277.000000	1.204000  
277.500000	0.941999  
278.000000	1.351000  
278.500000	1.492000  
279.000000	1.509000  
279.500000	1.548000  
280.000000	1.781000  
280.500000	1.803000  
281.000000	1.814000  
281.500000	1.764000  
282.000000	1.812000  
282.500000	2.081000  
283.000000	2.110000  
283.500000	2.240000  
284.000000	2.506000  
284.500000	2.561000  
285.000000	2.753000  
285.500000	2.635000  
286.000000	2.506000  
286.500000	2.634000  
287.000000	2.799000  
287.500000	3.068000  
288.000000	3.210000  
288.500000	3.164000  
289.000000	3.370000  
289.500000	3.570000  
290.000000	3.405000  
290.500000	3.392000  
291.000000	3.480000  
291.500000	3.571000  
292.000000	3.428000  
292.500000	3.504000  
293.000000	3.530000  
293.500000	3.660000  
294.000000	3.774000  
294.500000	3.820000  
295.000000	3.864000  
295.500000	3.833000  
296.000000	3.969000  
296.500000	3.929000  
297.000000	3.915000  
297.500000	3.891000  
298.000000	3.960000  
298.500000	3.770000  
299.000000	3.698000  
299.500000	3.667000  
300.000000	3.667000  
300.500000	3.666000  
301.000000	3.449000  
301.500000	3.907000  
302.000000	3.685000  
302.500000	3.433000  
303.000000	3.325000  
303.500000	3.222000  
304.000000	3.153000  
304.500000	3.142000  
305.000000	3.252000  
305.500000	3.264000  
306.000000	2.795000  
306.500000	2.904000  
307.000000	2.613000  
307.500000	2.596000  
308.000000	2.566000  
308.500000	2.472000  
309.000000	2.488000  
309.500000	2.393000  
310.000000	2.194000  
310.500000	2.177000  
311.000000	2.110000  
311.500000	2.057000  
312.000000	1.737000  
312.500000	1.507000  
313.000000	1.495000  
313.500000	1.579000  
314.000000	1.505000  
314.500000	1.397000  
315.000000	1.338000  
315.500000	1.121000  
316.000000	1.102000  
316.500000	1.064000  
317.000000	1.098000  
317.500000	0.891000  
318.000000	0.882000  
318.500000	0.806000  
319.000000	0.812999  
319.500000	0.855000  
320.000000	0.870000  
320.500000	0.714000  
321.000000	0.729000  
321.500000	0.703000  
322.000000	0.796000  
322.500000	0.805000  
323.000000	0.660000  
323.500000	0.763000  
324.000000	0.796000  
324.500000	0.970000  
325.000000	0.925000  
325.500000	1.062000  
326.000000	1.133000  
326.500000	1.021000  
327.000000	1.211000  
327.500000	1.191000  
328.000000	1.412000  
328.500000	1.535000  
329.000000	1.575000  
329.500000	1.825000  
330.000000	2.157000  
330.500000	2.279000  
331.000000	2.525000  
331.500000	2.915000  
332.000000	3.309000  
332.500000	3.282000  
333.000000	3.622000  
333.500000	4.024000  
334.000000	4.666000  
334.500000	5.015000  
335.000000	5.731000  
335.500000	6.145000  
336.000000	6.689000  
336.500000	6.993000  
337.000000	7.682000  
337.500000	8.321000  
338.000000	8.769000  
338.500000	8.994000  
339.000000	9.827999  
339.500000	10.108000 
340.000000	10.616000 
340.500000	10.683000 
341.000000	11.403000 
341.500000	12.080000 
342.000000	12.260000 
342.500000	12.705000 
343.000000	13.281000 
343.500000	13.539000 
344.000000	14.173000 
344.500000	14.589000 
345.000000	14.238000 
345.500000	14.637000 
346.000000	14.962000 
346.500000	15.019000 
347.000000	15.235000 
347.500000	15.501000 
348.000000	15.700000 
348.500000	16.258000 
349.000000	15.937000 
349.500000	15.941000 
350.000000	16.389000 
350.500000	16.453000 
351.000000	16.856000 
351.500000	16.949000 
352.000000	16.737000 
352.500000	16.929000 
353.000000	17.341000 
353.500000	16.758000 
354.000000	17.249000 
354.500000	17.229000 
355.000000	17.355000 
355.500000	17.719000 
356.000000	17.482000 
356.500000	17.504000 
357.000000	17.658000 
357.500000	17.848000 
358.000000	18.152000 
358.500000	17.789000 
359.000000	17.492000 
359.500000	18.175000 
360.000000	18.210000 
360.500000	18.571000 
361.000000	18.122000 
361.500000	18.276000 
362.000000	18.299000 
362.500000	18.016000 
363.000000	18.586000 
363.500000	18.492000 
364.000000	18.514000 
364.500000	18.494000 
365.000000	18.431000 
365.500000	18.133000 
366.000000	18.242000 
366.500000	18.414000 
367.000000	17.871000 
367.500000	17.470000 
368.000000	17.428000 
368.500000	17.479000 
369.000000	17.272000 
369.500000	16.876000 
370.000000	16.995000 
370.500000	16.665000 
371.000000	16.567000 
371.500000	16.297000 
372.000000	15.608000 
372.500000	15.273000 
373.000000	14.919000 
373.500000	14.242000 
374.000000	13.525000 
374.500000	13.619000 
375.000000	13.020000 
375.500000	12.865000 
376.000000	12.469000 
376.500000	12.050000 
377.000000	11.604000 
377.500000	10.910000 
378.000000	10.207000 
378.500000	9.765000  
379.000000	9.359999  
379.500000	9.016000  
380.000000	8.500999  
380.500000	8.057000  
381.000000	7.426000  
381.500000	6.736000  
382.000000	6.323000  
382.500000	5.959000  
383.000000	5.495000  
383.500000	4.980000  
384.000000	4.601000  
384.500000	4.303000  
385.000000	3.862000  
385.500000	3.559000  
386.000000	3.265000  
386.500000	2.924000  
387.000000	2.704000  
387.500000	2.516000  
388.000000	2.218000  
388.500000	1.915000  
389.000000	1.672000  
389.500000	1.668000  
390.000000	1.803000  

