PE FL                   SPECTRUM    ASCII       PEDS        1.60        
  -1
01#125.SP
02/03/16
01:55:16.00
02/03/16
01:58:09.00


580.000000
1









LS55
300.00
2.50
2.50
SCAN
1
20
100
100
0
100
0
1
0
1
7
ON
750 275 
1 0 0
#HDR
-1
-1
#GR
NM

0.00002384185791015625
0.0
320.000000
0.500000
521
8
4.151000
0.000000
#DATA
320.000000	0.000000 
320.500000	0.000000 
321.000000	0.000000 
321.500000	0.000000 
322.000000	0.000000 
322.500000	0.000000 
323.000000	0.000000 
323.500000	0.000000 
324.000000	0.000000 
324.500000	0.000000 
325.000000	0.000000 
325.500000	0.000000 
326.000000	0.000000 
326.500000	0.000000 
327.000000	0.000000 
327.500000	0.000000 
328.000000	0.000000 
328.500000	0.000000 
329.000000	0.000000 
329.500000	0.000000 
330.000000	0.000000 
330.500000	0.000000 
331.000000	0.000000 
331.500000	0.000000 
332.000000	0.000000 
332.500000	0.000000 
333.000000	0.000000 
333.500000	0.000000 
334.000000	0.000000 
334.500000	0.000000 
335.000000	0.000000 
335.500000	0.000000 
336.000000	0.000000 
336.500000	0.000000 
337.000000	0.000000 
337.500000	0.000000 
338.000000	0.000000 
338.500000	0.000000 
339.000000	0.000000 
339.500000	0.000000 
340.000000	0.000000 
340.500000	0.000000 
341.000000	0.000000 
341.500000	0.000000 
342.000000	0.000000 
342.500000	0.004000 
343.000000	0.016000 
343.500000	0.000000 
344.000000	0.000000 
344.500000	0.000000 
345.000000	0.000000 
345.500000	0.000000 
346.000000	0.000000 
346.500000	0.000000 
347.000000	0.000000 
347.500000	0.000000 
348.000000	0.000000 
348.500000	0.000000 
349.000000	0.000000 
349.500000	0.000000 
350.000000	0.000000 
350.500000	0.000000 
351.000000	0.000000 
351.500000	0.000000 
352.000000	0.004000 
352.500000	0.016000 
353.000000	0.000000 
353.500000	0.000000 
354.000000	0.000000 
354.500000	0.004000 
355.000000	0.016000 
355.500000	0.000000 
356.000000	0.000000 
356.500000	0.000000 
357.000000	0.000000 
357.500000	0.000000 
358.000000	0.000000 
358.500000	0.004000 
359.000000	0.016000 
359.500000	0.000000 
360.000000	0.000000 
360.500000	0.000000 
361.000000	0.000000 
361.500000	0.004000 
362.000000	0.016000 
362.500000	0.000000 
363.000000	0.000000 
363.500000	0.000000 
364.000000	0.000000 
364.500000	0.000000 
365.000000	0.000000 
365.500000	0.000000 
366.000000	0.000000 
366.500000	0.000000 
367.000000	0.000000 
367.500000	0.000000 
368.000000	0.000000 
368.500000	0.000000 
369.000000	0.000000 
369.500000	0.000000 
370.000000	0.000000 
370.500000	0.000000 
371.000000	0.000000 
371.500000	0.000000 
372.000000	0.000000 
372.500000	0.000000 
373.000000	0.000000 
373.500000	0.000000 
374.000000	0.000000 
374.500000	0.000000 
375.000000	0.000000 
375.500000	0.000000 
376.000000	0.000000 
376.500000	0.000000 
377.000000	0.017000 
377.500000	0.076000 
378.000000	0.061000 
378.500000	0.074000 
379.000000	0.131000 
379.500000	0.196000 
380.000000	0.295000 
380.500000	0.213000 
381.000000	0.426000 
381.500000	0.572000 
382.000000	0.916000 
382.500000	0.984000 
383.000000	1.034000 
383.500000	1.229000 
384.000000	1.263000 
384.500000	1.464000 
385.000000	1.684000 
385.500000	1.769000 
386.000000	1.942000 
386.500000	1.914000 
387.000000	2.224000 
387.500000	2.439000 
388.000000	2.669000 
388.500000	2.404000 
389.000000	2.868000 
389.500000	2.914000 
390.000000	2.835000 
390.500000	3.079000 
391.000000	3.177000 
391.500000	3.142000 
392.000000	3.016000 
392.500000	3.208000 
393.000000	3.417000 
393.500000	3.659000 
394.000000	3.495000 
394.500000	3.393000 
395.000000	3.344000 
395.500000	3.534000 
396.000000	3.527000 
396.500000	3.816000 
397.000000	3.873000 
397.500000	3.821000 
398.000000	3.948000 
398.500000	3.685000 
399.000000	3.790000 
399.500000	3.987000 
400.000000	3.857000 
400.500000	3.904000 
401.000000	3.932000 
401.500000	3.838000 
402.000000	3.980000 
402.500000	3.702000 
403.000000	3.591000 
403.500000	3.837000 
404.000000	3.994000 
404.500000	3.752000 
405.000000	4.018000 
405.500000	3.987000 
406.000000	3.807000 
406.500000	3.786000 
407.000000	3.728000 
407.500000	3.659000 
408.000000	3.922000 
408.500000	3.493000 
409.000000	3.805000 
409.500000	3.948000 
410.000000	3.757000 
410.500000	4.055000 
411.000000	3.901000 
411.500000	4.151000 
412.000000	4.134000 
412.500000	3.868000 
413.000000	3.738000 
413.500000	3.933000 
414.000000	4.103000 
414.500000	3.764000 
415.000000	3.604000 
415.500000	3.722000 
416.000000	3.932000 
416.500000	3.994000 
417.000000	3.622000 
417.500000	3.990000 
418.000000	3.799000 
418.500000	3.902000 
419.000000	3.658000 
419.500000	3.810000 
420.000000	3.694000 
420.500000	3.624000 
421.000000	4.016000 
421.500000	3.877000 
422.000000	4.028000 
422.500000	3.771000 
423.000000	3.898000 
423.500000	3.720000 
424.000000	3.828000 
424.500000	3.654000 
425.000000	3.894000 
425.500000	4.127000 
426.000000	4.127000 
426.500000	3.725000 
427.000000	3.514000 
427.500000	3.525000 
428.000000	3.481000 
428.500000	3.597000 
429.000000	3.936000 
429.500000	3.845000 
430.000000	3.705000 
430.500000	3.520000 
431.000000	3.698000 
431.500000	3.168000 
432.000000	3.437000 
432.500000	3.253000 
433.000000	3.142000 
433.500000	3.363000 
434.000000	3.107000 
434.500000	3.106000 
435.000000	3.318000 
435.500000	3.232000 
436.000000	3.405000 
436.500000	3.205000 
437.000000	3.321000 
437.500000	3.000000 
438.000000	2.985000 
438.500000	3.044000 
439.000000	3.259000 
439.500000	2.937000 
440.000000	2.870000 
440.500000	2.973000 
441.000000	2.710000 
441.500000	2.952000 
442.000000	2.568000 
442.500000	2.802000 
443.000000	2.646000 
443.500000	2.635000 
444.000000	2.494000 
444.500000	2.553000 
445.000000	2.464000 
445.500000	2.447000 
446.000000	2.228000 
446.500000	2.374000 
447.000000	2.636000 
447.500000	2.379000 
448.000000	2.118000 
448.500000	2.043000 
449.000000	2.225000 
449.500000	2.080000 
450.000000	2.036000 
450.500000	1.961000 
451.000000	1.802000 
451.500000	1.866000 
452.000000	1.809000 
452.500000	1.794000 
453.000000	1.594000 
453.500000	1.610000 
454.000000	1.699000 
454.500000	1.874000 
455.000000	1.790000 
455.500000	1.416000 
456.000000	1.582000 
456.500000	1.286000 
457.000000	1.480000 
457.500000	1.336000 
458.000000	1.292000 
458.500000	1.397000 
459.000000	1.458000 
459.500000	1.291000 
460.000000	1.109000 
460.500000	1.115000 
461.000000	1.303000 
461.500000	1.008000 
462.000000	1.098000 
462.500000	0.840000 
463.000000	1.190000 
463.500000	0.957000 
464.000000	0.937999 
464.500000	0.953000 
465.000000	1.084000 
465.500000	1.087000 
466.000000	1.033000 
466.500000	0.817999 
467.000000	0.823000 
467.500000	0.848000 
468.000000	0.851000 
468.500000	0.757000 
469.000000	0.787000 
469.500000	0.635000 
470.000000	0.843000 
470.500000	0.690999 
471.000000	0.669000 
471.500000	0.627000 
472.000000	0.556000 
472.500000	0.656000 
473.000000	0.417000 
473.500000	0.637000 
474.000000	0.446000 
474.500000	0.531000 
475.000000	0.372000 
475.500000	0.667000 
476.000000	0.484000 
476.500000	0.569000 
477.000000	0.677000 
477.500000	0.486000 
478.000000	0.340000 
478.500000	0.482000 
479.000000	0.491000 
479.500000	0.364000 
480.000000	0.506000 
480.500000	0.421000 
481.000000	0.196000 
481.500000	0.386000 
482.000000	0.339000 
482.500000	0.405000 
483.000000	0.193000 
483.500000	0.356000 
484.000000	0.253000 
484.500000	0.350000 
485.000000	0.286000 
485.500000	0.269000 
486.000000	0.200000 
486.500000	0.213000 
487.000000	0.291000 
487.500000	0.168000 
488.000000	0.286000 
488.500000	0.348000 
489.000000	0.271000 
489.500000	0.258000 
490.000000	0.130000 
490.500000	0.090000 
491.000000	0.155000 
491.500000	0.256000 
492.000000	0.126000 
492.500000	0.106000 
493.000000	0.261000 
493.500000	0.155000 
494.000000	0.136000 
494.500000	0.192000 
495.000000	0.207000 
495.500000	0.130000 
496.000000	0.077000 
496.500000	0.085999 
497.000000	0.179000 
497.500000	0.168000 
498.000000	0.159000 
498.500000	0.085999 
499.000000	0.167000 
499.500000	0.089000 
500.000000	0.065000 
500.500000	0.142000 
501.000000	0.085999 
501.500000	0.193000 
502.000000	0.200000 
502.500000	0.097000 
503.000000	0.081000 
503.500000	0.081000 
504.000000	0.073000 
504.500000	0.045000 
505.000000	0.052000 
505.500000	0.025000 
506.000000	0.049000 
506.500000	0.085999 
507.000000	0.081000 
507.500000	0.008000 
508.000000	0.040000 
508.500000	0.036000 
509.000000	0.045000 
509.500000	0.134000 
510.000000	0.089000 
510.500000	0.032000 
511.000000	0.021000 
511.500000	0.085000 
512.000000	0.033000 
512.500000	0.068000 
513.000000	0.029000 
513.500000	0.061000 
514.000000	0.061000 
514.500000	0.057000 
515.000000	0.049000 
515.500000	0.071999 
516.000000	0.057000 
516.500000	0.118000 
517.000000	0.081000 
517.500000	0.021000 
518.000000	0.081000 
518.500000	0.000000 
519.000000	0.013000 
519.500000	0.061000 
520.000000	0.065000 
520.500000	0.085000 
521.000000	0.080000 
521.500000	0.013000 
522.000000	0.056000 
522.500000	0.036000 
523.000000	0.020000 
523.500000	0.024000 
524.000000	0.032000 
524.500000	0.000000 
525.000000	0.017000 
525.500000	0.064000 
526.000000	0.000000 
526.500000	0.008000 
527.000000	0.032000 
527.500000	0.004000 
528.000000	0.020000 
528.500000	0.037000 
529.000000	0.106000 
529.500000	0.105000 
530.000000	0.036000 
530.500000	0.016000 
531.000000	0.000000 
531.500000	0.008000 
532.000000	0.032000 
532.500000	0.004000 
533.000000	0.016000 
533.500000	0.000000 
534.000000	0.000000 
534.500000	0.000000 
535.000000	0.000000 
535.500000	0.000000 
536.000000	0.000000 
536.500000	0.004000 
537.000000	0.029000 
537.500000	0.048000 
538.000000	0.008000 
538.500000	0.032000 
539.000000	0.004000 
539.500000	0.016000 
540.000000	0.000000 
540.500000	0.000000 
541.000000	0.000000 
541.500000	0.008999 
542.000000	0.032000 
542.500000	0.004000 
543.000000	0.016000 
543.500000	0.000000 
544.000000	0.000000 
544.500000	0.000000 
545.000000	0.000000 
545.500000	0.000000 
546.000000	0.000000 
546.500000	0.000000 
547.000000	0.000000 
547.500000	0.000000 
548.000000	0.008000 
548.500000	0.032000 
549.000000	0.008000 
549.500000	0.032000 
550.000000	0.000000 
550.500000	0.000000 
551.000000	0.004000 
551.500000	0.020000 
552.000000	0.020000 
552.500000	0.016000 
553.000000	0.000000 
553.500000	0.000000 
554.000000	0.000000 
554.500000	0.000000 
555.000000	0.000000 
555.500000	0.000000 
556.000000	0.000000 
556.500000	0.004000 
557.000000	0.024000 
557.500000	0.032000 
558.000000	0.000000 
558.500000	0.021000 
559.000000	0.081000 
559.500000	0.000000 
560.000000	0.000000 
560.500000	0.000000 
561.000000	0.000000 
561.500000	0.000000 
562.000000	0.000000 
562.500000	0.000000 
563.000000	0.000000 
563.500000	0.000000 
564.000000	0.000000 
564.500000	0.000000 
565.000000	0.000000 
565.500000	0.000000 
566.000000	0.000000 
566.500000	0.000000 
567.000000	0.000000 
567.500000	0.000000 
568.000000	0.000000 
568.500000	0.000000 
569.000000	0.000000 
569.500000	0.000000 
570.000000	0.004000 
570.500000	0.016000 
571.000000	0.000000 
571.500000	0.000000 
572.000000	0.000000 
572.500000	0.000000 
573.000000	0.000000 
573.500000	0.000000 
574.000000	0.000000 
574.500000	0.000000 
575.000000	0.000000 
575.500000	0.004000 
576.000000	0.016000 
576.500000	0.000000 
577.000000	0.000000 
577.500000	0.000000 
578.000000	0.000000 
578.500000	0.000000 
579.000000	0.000000 
579.500000	0.014000 
580.000000	0.082000 

