PE FL                   SPECTRUM    ASCII       PEDS        1.60        
  -1
01#135.SP
02/03/16
02:36:45.00
02/03/16
02:38:26.00


296.000000
1









LS55
430.00
2.50
2.50
SCAN
1
20
100
100
0
50
0
0
0
1
7
ON
435 420 
1 0 0
#HDR
-1
-1
#GR
NM

0.00002384185791015625
0.0
220.000000
0.500000
153
8
3.591000
0.000000
#DATA
220.000000	0.000000 
220.500000	0.027000 
221.000000	0.106000 
221.500000	0.000000 
222.000000	0.000000 
222.500000	0.000000 
223.000000	0.000000 
223.500000	0.019000 
224.000000	0.092000 
224.500000	0.067000 
225.000000	0.000000 
225.500000	0.000000 
226.000000	0.031000 
226.500000	0.141000 
227.000000	0.096000 
227.500000	0.118000 
228.000000	0.164000 
228.500000	0.137000 
229.000000	0.094000 
229.500000	0.079000 
230.000000	0.140000 
230.500000	0.074000 
231.000000	0.191000 
231.500000	0.084000 
232.000000	0.038000 
232.500000	0.020000 
233.000000	0.077000 
233.500000	0.000000 
234.000000	0.000000 
234.500000	0.000000 
235.000000	0.000000 
235.500000	0.021000 
236.000000	0.082000 
236.500000	0.011000 
237.000000	0.040000 
237.500000	0.020000 
238.000000	0.089000 
238.500000	0.057000 
239.000000	0.089000 
239.500000	0.067000 
240.000000	0.000000 
240.500000	0.014000 
241.000000	0.065000 
241.500000	0.050000 
242.000000	0.007000 
242.500000	0.026000 
243.000000	0.008000 
243.500000	0.035000 
244.000000	0.034000 
244.500000	0.043000 
245.000000	0.080000 
245.500000	0.087999 
246.000000	0.138000 
246.500000	0.094000 
247.000000	0.149000 
247.500000	0.213000 
248.000000	0.168000 
248.500000	0.094000 
249.000000	0.194000 
249.500000	0.098000 
250.000000	0.076000 
250.500000	0.216000 
251.000000	0.208000 
251.500000	0.286000 
252.000000	0.194000 
252.500000	0.050000 
253.000000	0.105000 
253.500000	0.182000 
254.000000	0.202000 
254.500000	0.292000 
255.000000	0.384000 
255.500000	0.499000 
256.000000	0.553000 
256.500000	0.470000 
257.000000	0.612000 
257.500000	0.933000 
258.000000	1.021000 
258.500000	0.969000 
259.000000	0.938999 
259.500000	1.075000 
260.000000	1.156000 
260.500000	1.263000 
261.000000	1.196000 
261.500000	1.088000 
262.000000	0.978000 
262.500000	0.927000 
263.000000	1.052000 
263.500000	1.115000 
264.000000	1.072000 
264.500000	1.194000 
265.000000	1.044000 
265.500000	1.090000 
266.000000	1.066000 
266.500000	1.263000 
267.000000	1.038000 
267.500000	1.349000 
268.000000	1.187000 
268.500000	1.071000 
269.000000	0.926000 
269.500000	0.861000 
270.000000	0.965000 
270.500000	0.889000 
271.000000	0.849000 
271.500000	0.766000 
272.000000	0.835000 
272.500000	1.080000 
273.000000	0.905000 
273.500000	0.778000 
274.000000	0.700000 
274.500000	0.844000 
275.000000	0.969000 
275.500000	0.772000 
276.000000	0.855000 
276.500000	0.984000 
277.000000	0.946000 
277.500000	1.095000 
278.000000	1.293000 
278.500000	1.136000 
279.000000	1.400000 
279.500000	1.317000 
280.000000	1.381000 
280.500000	1.622000 
281.000000	1.704000 
281.500000	1.737000 
282.000000	1.709000 
282.500000	1.981000 
283.000000	1.933000 
283.500000	1.956000 
284.000000	2.227000 
284.500000	2.292000 
285.000000	2.262000 
285.500000	2.630000 
286.000000	2.663000 
286.500000	2.452000 
287.000000	2.687000 
287.500000	2.754000 
288.000000	2.912000 
288.500000	3.003000 
289.000000	2.869000 
289.500000	3.088000 
290.000000	3.183000 
290.500000	3.060000 
291.000000	3.255000 
291.500000	3.159000 
292.000000	3.126000 
292.500000	3.315000 
293.000000	3.048000 
293.500000	3.223000 
294.000000	3.318000 
294.500000	3.467000 
295.000000	3.362000 
295.500000	3.520000 
296.000000	3.591000 

