PE FL                   SPECTRUM    ASCII       PEDS        1.60        
  -1
01#126.SP
02/03/16
01:59:06.00
02/03/16
02:02:50.00


400.000000
1









LS55
420.00
2.50
2.50
SCAN
1
20
100
100
0
50
0
0
0
1
7
ON
580 300 
1 0 0
#HDR
-1
-1
#GR
NM

0.00002384185791015625
0.0
220.000000
0.500000
361
8
18.795000
0.000000
#DATA
220.000000	0.000000  
220.500000	0.000000  
221.000000	0.000000  
221.500000	0.000000  
222.000000	0.046000  
222.500000	0.183000  
223.000000	0.000000  
223.500000	0.000000  
224.000000	0.017000  
224.500000	0.080000  
225.000000	0.069000  
225.500000	0.048000  
226.000000	0.023000  
226.500000	0.128000  
227.000000	0.161000  
227.500000	0.085999  
228.000000	0.139000  
228.500000	0.207000  
229.000000	0.183000  
229.500000	0.172000  
230.000000	0.067000  
230.500000	0.077000  
231.000000	0.086999  
231.500000	0.073000  
232.000000	0.010000  
232.500000	0.058000  
233.000000	0.076000  
233.500000	0.010000  
234.000000	0.058000  
234.500000	0.078000  
235.000000	0.000000  
235.500000	0.021000  
236.000000	0.081000  
236.500000	0.021000  
237.000000	0.091000  
237.500000	0.061000  
238.000000	0.087999  
238.500000	0.037000  
239.000000	0.017000  
239.500000	0.090000  
240.000000	0.090000  
240.500000	0.007000  
241.000000	0.039000  
241.500000	0.050000  
242.000000	0.040000  
242.500000	0.173000  
243.000000	0.078000  
243.500000	0.094000  
244.000000	0.028000  
244.500000	0.017000  
245.000000	0.108000  
245.500000	0.204000  
246.000000	0.152000  
246.500000	0.098000  
247.000000	0.146000  
247.500000	0.158000  
248.000000	0.264000  
248.500000	0.120000  
249.000000	0.223000  
249.500000	0.240000  
250.000000	0.173000  
250.500000	0.273000  
251.000000	0.322000  
251.500000	0.322000  
252.000000	0.378000  
252.500000	0.232000  
253.000000	0.311000  
253.500000	0.180000  
254.000000	0.191000  
254.500000	0.307000  
255.000000	0.610000  
255.500000	0.554000  
256.000000	0.559000  
256.500000	0.677000  
257.000000	0.736000  
257.500000	0.964000  
258.000000	1.219000  
258.500000	1.202000  
259.000000	1.325000  
259.500000	1.373000  
260.000000	1.221000  
260.500000	1.150000  
261.000000	1.118000  
261.500000	1.253000  
262.000000	1.093000  
262.500000	1.127000  
263.000000	1.385000  
263.500000	1.158000  
264.000000	1.344000  
264.500000	1.499000  
265.000000	1.265000  
265.500000	1.281000  
266.000000	1.393000  
266.500000	1.363000  
267.000000	1.508000  
267.500000	1.473000  
268.000000	1.257000  
268.500000	1.118000  
269.000000	1.354000  
269.500000	1.269000  
270.000000	1.120000  
270.500000	1.182000  
271.000000	1.313000  
271.500000	1.311000  
272.000000	1.287000  
272.500000	1.143000  
273.000000	1.246000  
273.500000	1.133000  
274.000000	1.209000  
274.500000	1.282000  
275.000000	1.122000  
275.500000	0.924000  
276.000000	1.067000  
276.500000	1.427000  
277.000000	1.223000  
277.500000	1.256000  
278.000000	1.343000  
278.500000	1.469000  
279.000000	1.900000  
279.500000	1.723000  
280.000000	1.707000  
280.500000	2.135000  
281.000000	1.707000  
281.500000	1.940000  
282.000000	2.002000  
282.500000	2.153000  
283.000000	2.150000  
283.500000	2.545000  
284.000000	2.575000  
284.500000	2.594000  
285.000000	2.698000  
285.500000	2.781000  
286.000000	2.561000  
286.500000	2.716000  
287.000000	2.989000  
287.500000	3.105000  
288.000000	3.269000  
288.500000	3.229000  
289.000000	3.549000  
289.500000	3.437000  
290.000000	3.399000  
290.500000	3.494000  
291.000000	3.643000  
291.500000	3.437000  
292.000000	3.572000  
292.500000	3.817000  
293.000000	3.775000  
293.500000	3.886000  
294.000000	3.788000  
294.500000	3.771000  
295.000000	3.658000  
295.500000	4.113000  
296.000000	4.057000  
296.500000	4.100000  
297.000000	4.473000  
297.500000	4.327000  
298.000000	4.239000  
298.500000	4.054000  
299.000000	4.216000  
299.500000	4.110000  
300.000000	3.813000  
300.500000	3.665000  
301.000000	3.648000  
301.500000	3.780000  
302.000000	3.566000  
302.500000	3.485000  
303.000000	3.431000  
303.500000	3.379000  
304.000000	3.410000  
304.500000	3.378000  
305.000000	3.259000  
305.500000	2.969000  
306.000000	3.191000  
306.500000	2.895000  
307.000000	2.863000  
307.500000	2.781000  
308.000000	2.683000  
308.500000	2.525000  
309.000000	2.281000  
309.500000	2.368000  
310.000000	2.245000  
310.500000	2.190000  
311.000000	2.124000  
311.500000	1.800000  
312.000000	1.815000  
312.500000	1.863000  
313.000000	1.866000  
313.500000	1.954000  
314.000000	1.547000  
314.500000	1.456000  
315.000000	1.315000  
315.500000	1.398000  
316.000000	1.255000  
316.500000	1.143000  
317.000000	1.227000  
317.500000	0.986000  
318.000000	0.965000  
318.500000	0.970000  
319.000000	1.025000  
319.500000	0.899000  
320.000000	0.873000  
320.500000	0.926000  
321.000000	0.981000  
321.500000	0.814999  
322.000000	0.784000  
322.500000	0.755000  
323.000000	0.811000  
323.500000	0.812000  
324.000000	0.935000  
324.500000	0.910000  
325.000000	0.969000  
325.500000	0.983000  
326.000000	1.172000  
326.500000	1.261000  
327.000000	1.268000  
327.500000	1.389000  
328.000000	1.397000  
328.500000	1.470000  
329.000000	1.666000  
329.500000	1.980000  
330.000000	2.199000  
330.500000	2.277000  
331.000000	2.597000  
331.500000	2.902000  
332.000000	3.329000  
332.500000	3.511000  
333.000000	3.967000  
333.500000	4.402000  
334.000000	4.686000  
334.500000	4.969000  
335.000000	5.436000  
335.500000	5.902000  
336.000000	6.518000  
336.500000	7.167000  
337.000000	7.563000  
337.500000	8.047000  
338.000000	8.569000  
338.500000	9.551000  
339.000000	10.051000 
339.500000	10.391000 
340.000000	10.957000 
340.500000	10.957000 
341.000000	12.126000 
341.500000	12.169000 
342.000000	12.260000 
342.500000	13.170000 
343.000000	13.282000 
343.500000	13.670000 
344.000000	13.536000 
344.500000	14.305000 
345.000000	14.271000 
345.500000	14.645000 
346.000000	15.127000 
346.500000	15.515000 
347.000000	15.429000 
347.500000	15.721000 
348.000000	16.048000 
348.500000	16.513000 
349.000000	17.004000 
349.500000	16.438000 
350.000000	16.657000 
350.500000	16.924000 
351.000000	16.614000 
351.500000	16.868000 
352.000000	16.988000 
352.500000	17.239000 
353.000000	17.096000 
353.500000	17.929000 
354.000000	17.638000 
354.500000	17.471000 
355.000000	17.450000 
355.500000	17.594000 
356.000000	17.482000 
356.500000	18.031000 
357.000000	18.068000 
357.500000	17.577000 
358.000000	17.906000 
358.500000	18.066000 
359.000000	18.160000 
359.500000	18.318000 
360.000000	18.371000 
360.500000	18.398000 
361.000000	18.646000 
361.500000	18.455000 
362.000000	18.424000 
362.500000	18.453000 
363.000000	18.651000 
363.500000	18.550000 
364.000000	18.374000 
364.500000	18.174000 
365.000000	18.795000 
365.500000	18.592000 
366.000000	18.381000 
366.500000	18.593000 
367.000000	17.783000 
367.500000	17.948000 
368.000000	18.150000 
368.500000	17.605000 
369.000000	17.543000 
369.500000	17.214000 
370.000000	17.057000 
370.500000	17.143000 
371.000000	16.874000 
371.500000	16.625000 
372.000000	16.354000 
372.500000	15.825000 
373.000000	15.375000 
373.500000	14.947000 
374.000000	14.673000 
374.500000	14.297000 
375.000000	13.813000 
375.500000	13.371000 
376.000000	12.920000 
376.500000	12.465000 
377.000000	11.826000 
377.500000	11.365000 
378.000000	10.780000 
378.500000	10.159000 
379.000000	9.759000  
379.500000	9.196999  
380.000000	8.438000  
380.500000	8.108000  
381.000000	7.685000  
381.500000	7.344000  
382.000000	6.456000  
382.500000	6.048000  
383.000000	5.403000  
383.500000	4.892000  
384.000000	4.658000  
384.500000	4.207000  
385.000000	3.913000  
385.500000	3.658000  
386.000000	3.274000  
386.500000	3.068000  
387.000000	2.626000  
387.500000	2.344000  
388.000000	2.151000  
388.500000	2.038000  
389.000000	1.736000  
389.500000	1.665000  
390.000000	1.477000  
390.500000	1.321000  
391.000000	1.012000  
391.500000	1.089000  
392.000000	1.085000  
392.500000	0.916000  
393.000000	0.808000  
393.500000	0.720000  
394.000000	0.567999  
394.500000	0.619000  
395.000000	0.649000  
395.500000	0.554000  
396.000000	0.585000  
396.500000	0.373000  
397.000000	0.322000  
397.500000	0.319000  
398.000000	0.327000  
398.500000	0.225000  
399.000000	0.249000  
399.500000	0.263000  
400.000000	0.101000  

