PE FL                   SPECTRUM    ASCII       PEDS        1.60        
  -1
01#127.SP
02/03/16
02:03:29.00
02/03/16
02:09:58.00


690.000000
1









LS55
355.00
5.00
5.00
SCAN
1
20
100
100
0
50
0
1
0
1
7
ON
420 400 
1 0 0
#HDR
-1
-1
#GR
NM

0.00002384185791015625
0.0
370.000000
0.500000
641
8
62.636933
0.027133
#DATA
370.000000	0.191000  
370.500000	0.262533  
371.000000	0.320133  
371.500000	0.364733  
372.000000	0.407200  
372.500000	0.473666  
373.000000	0.572733  
373.500000	0.694200  
374.000000	0.842733  
374.500000	1.035133  
375.000000	1.297000  
375.500000	1.591200  
376.000000	1.911133  
376.500000	2.335666  
377.000000	2.911999  
377.500000	3.591000  
378.000000	4.332666  
378.500000	5.175600  
379.000000	6.125333  
379.500000	7.215466  
380.000000	8.486400  
380.500000	9.841866  
381.000000	11.266533 
381.500000	12.923200 
382.000000	14.792933 
382.500000	16.673333 
383.000000	18.461600 
383.500000	20.371866 
384.000000	22.513866 
384.500000	24.643000 
385.000000	26.725666 
385.500000	28.831933 
386.000000	30.913000 
386.500000	33.055866 
387.000000	35.242800 
387.500000	37.247000 
388.000000	39.127666 
388.500000	41.021866 
389.000000	42.862266 
389.500000	44.544666 
390.000000	46.217333 
390.500000	47.825933 
391.000000	49.260666 
391.500000	50.646733 
392.000000	51.972666 
392.500000	53.170533 
393.000000	54.283666 
393.500000	55.164066 
394.000000	56.091066 
394.500000	57.266400 
395.000000	58.180266 
395.500000	58.786266 
396.000000	59.428133 
396.500000	60.054066 
397.000000	60.505533 
397.500000	60.723866 
398.000000	60.996933 
398.500000	61.545066 
399.000000	62.014133 
399.500000	62.309333 
400.000000	62.514600 
400.500000	62.618599 
401.000000	62.602866 
401.500000	62.549466 
402.000000	62.527666 
402.500000	62.613000 
403.000000	62.636933 
403.500000	62.531266 
404.000000	62.460466 
404.500000	62.497999 
405.000000	62.402333 
405.500000	62.249733 
406.000000	62.130333 
406.500000	62.145666 
407.000000	62.202333 
407.500000	62.160200 
408.000000	62.093466 
408.500000	61.912733 
409.000000	61.664466 
409.500000	61.709333 
410.000000	61.806600 
410.500000	61.806066 
411.000000	61.724600 
411.500000	61.543599 
412.000000	61.544066 
412.500000	61.657933 
413.000000	61.468400 
413.500000	61.301399 
414.000000	61.405133 
414.500000	61.442666 
415.000000	61.346333 
415.500000	61.374666 
416.000000	61.418600 
416.500000	61.359733 
417.000000	61.417133 
417.500000	61.406466 
418.000000	61.196800 
418.500000	61.224866 
419.000000	61.250866 
419.500000	60.912266 
420.000000	60.815933 
420.500000	61.015533 
421.000000	60.936066 
421.500000	60.681333 
422.000000	60.598466 
422.500000	60.524066 
423.000000	60.293733 
423.500000	60.119599 
424.000000	60.001866 
424.500000	59.813066 
425.000000	59.473000 
425.500000	59.135466 
426.000000	58.920066 
426.500000	58.696266 
427.000000	58.277333 
427.500000	57.761000 
428.000000	57.348066 
428.500000	57.103666 
429.000000	56.735466 
429.500000	56.207400 
430.000000	55.811266 
430.500000	55.497133 
431.000000	54.982000 
431.500000	54.341800 
432.000000	53.839400 
432.500000	53.383333 
433.000000	52.812800 
433.500000	52.319133 
434.000000	51.823800 
434.500000	51.139066 
435.000000	50.576733 
435.500000	50.110933 
436.000000	49.386333 
436.500000	48.680266 
437.000000	48.088400 
437.500000	47.486533 
438.000000	46.911200 
438.500000	46.272200 
439.000000	45.546666 
439.500000	44.824000 
440.000000	44.056066 
440.500000	43.294533 
441.000000	42.590000 
441.500000	42.001933 
442.000000	41.395200 
442.500000	40.568266 
443.000000	39.771533 
443.500000	39.107000 
444.000000	38.452600 
444.500000	37.861866 
445.000000	37.221266 
445.500000	36.472066 
446.000000	35.778533 
446.500000	35.062533 
447.000000	34.359800 
447.500000	33.722866 
448.000000	33.048200 
448.500000	32.334400 
449.000000	31.590733 
449.500000	30.871200 
450.000000	30.228933 
450.500000	29.632266 
451.000000	29.113133 
451.500000	28.518466 
452.000000	27.789466 
452.500000	27.105466 
453.000000	26.539466 
453.500000	25.980466 
454.000000	25.346733 
454.500000	24.779933 
455.000000	24.342466 
455.500000	23.822066 
456.000000	23.185800 
456.500000	22.564466 
457.000000	22.006200 
457.500000	21.451533 
458.000000	20.911733 
458.500000	20.441133 
459.000000	19.936200 
459.500000	19.437533 
460.000000	18.984000 
460.500000	18.457800 
461.000000	17.979466 
461.500000	17.563400 
462.000000	17.139000 
462.500000	16.777533 
463.000000	16.393933 
463.500000	15.953466 
464.000000	15.554600 
464.500000	15.112000 
465.000000	14.708533 
465.500000	14.424666 
466.000000	14.109666 
466.500000	13.732733 
467.000000	13.378666 
467.500000	13.022733 
468.000000	12.681800 
468.500000	12.377933 
469.000000	12.058066 
469.500000	11.775133 
470.000000	11.551066 
470.500000	11.315800 
471.000000	11.013466 
471.500000	10.732400 
472.000000	10.534466 
472.500000	10.329733 
473.000000	10.050733 
473.500000	9.802066  
474.000000	9.581000  
474.500000	9.331533  
475.000000	9.095800  
475.500000	8.912333  
476.000000	8.712400  
476.500000	8.487066  
477.000000	8.296333  
477.500000	8.133866  
478.000000	7.971399  
478.500000	7.789133  
479.000000	7.599666  
479.500000	7.435733  
480.000000	7.297733  
480.500000	7.132599  
481.000000	6.920266  
481.500000	6.731399  
482.000000	6.617666  
482.500000	6.552000  
483.000000	6.479666  
483.500000	6.301066  
484.000000	6.072866  
484.500000	5.931800  
485.000000	5.868399  
485.500000	5.770333  
486.000000	5.607666  
486.500000	5.478800  
487.000000	5.441733  
487.500000	5.390066  
488.000000	5.230733  
488.500000	5.077533  
489.000000	5.026400  
489.500000	4.951266  
490.000000	4.833266  
490.500000	4.752466  
491.000000	4.646866  
491.500000	4.535666  
492.000000	4.500200  
492.500000	4.431133  
493.000000	4.320800  
493.500000	4.269466  
494.000000	4.218733  
494.500000	4.123400  
495.000000	4.070933  
495.500000	4.018733  
496.000000	3.932266  
496.500000	3.839800  
497.000000	3.771399  
497.500000	3.718066  
498.000000	3.671533  
498.500000	3.606000  
499.000000	3.546600  
499.500000	3.508200  
500.000000	3.460333  
500.500000	3.384200  
501.000000	3.333933  
501.500000	3.320466  
502.000000	3.277200  
502.500000	3.208866  
503.000000	3.172000  
503.500000	3.143333  
504.000000	3.091666  
504.500000	3.017600  
505.000000	2.948000  
505.500000	2.925933  
506.000000	2.904200  
506.500000	2.850333  
507.000000	2.786733  
507.500000	2.743266  
508.000000	2.718266  
508.500000	2.679200  
509.000000	2.644066  
509.500000	2.626666  
510.000000	2.586066  
510.500000	2.527933  
511.000000	2.474600  
511.500000	2.447800  
512.000000	2.452200  
512.500000	2.436600  
513.000000	2.397333  
513.500000	2.348400  
514.000000	2.279933  
514.500000	2.253466  
515.000000	2.265133  
515.500000	2.214266  
516.000000	2.135666  
516.500000	2.109266  
517.000000	2.104266  
517.500000	2.072133  
518.000000	2.036000  
518.500000	2.006266  
519.000000	1.967666  
519.500000	1.929866  
520.000000	1.913000  
520.500000	1.897733  
521.000000	1.851133  
521.500000	1.794666  
522.000000	1.781000  
522.500000	1.771733  
523.000000	1.735333  
523.500000	1.716800  
524.000000	1.716733  
524.500000	1.695466  
525.000000	1.660666  
525.500000	1.647266  
526.000000	1.644866  
526.500000	1.606800  
527.000000	1.559000  
527.500000	1.537133  
528.000000	1.521066  
528.500000	1.503666  
529.000000	1.474733  
529.500000	1.424400  
530.000000	1.398733  
530.500000	1.416600  
531.000000	1.436333  
531.500000	1.427266  
532.000000	1.390933  
532.500000	1.334066  
533.000000	1.289666  
533.500000	1.293866  
534.000000	1.306000  
534.500000	1.274866  
535.000000	1.222800  
535.500000	1.195133  
536.000000	1.179200  
536.500000	1.175533  
537.000000	1.179333  
537.500000	1.169533  
538.000000	1.155866  
538.500000	1.150533  
539.000000	1.120000  
539.500000	1.084866  
540.000000	1.079000  
540.500000	1.079266  
541.000000	1.060800  
541.500000	1.039666  
542.000000	1.020933  
542.500000	1.010533  
543.000000	0.998466  
543.500000	0.970466  
544.000000	0.947600  
544.500000	0.935199  
545.000000	0.924400  
545.500000	0.913066  
546.000000	0.898066  
546.500000	0.888599  
547.000000	0.880066  
547.500000	0.856533  
548.000000	0.841466  
548.500000	0.844933  
549.000000	0.844466  
549.500000	0.835466  
550.000000	0.835066  
550.500000	0.826800  
551.000000	0.809133  
551.500000	0.800000  
552.000000	0.785800  
552.500000	0.765533  
553.000000	0.760866  
553.500000	0.761000  
554.000000	0.754000  
554.500000	0.753600  
555.000000	0.750200  
555.500000	0.738799  
556.000000	0.730200  
556.500000	0.727333  
557.000000	0.720333  
557.500000	0.709066  
558.000000	0.697733  
558.500000	0.696333  
559.000000	0.694666  
559.500000	0.673333  
560.000000	0.649133  
560.500000	0.642333  
561.000000	0.632933  
561.500000	0.629000  
562.000000	0.632400  
562.500000	0.616066  
563.000000	0.609466  
563.500000	0.616266  
564.000000	0.595000  
564.500000	0.567066  
565.000000	0.567733  
565.500000	0.579066  
566.000000	0.580933  
566.500000	0.570066  
567.000000	0.549733  
567.500000	0.529600  
568.000000	0.524000  
568.500000	0.523866  
569.000000	0.508266  
569.500000	0.494066  
570.000000	0.490200  
570.500000	0.483466  
571.000000	0.476000  
571.500000	0.471933  
572.000000	0.463733  
572.500000	0.459133  
573.000000	0.464400  
573.500000	0.465666  
574.000000	0.450533  
574.500000	0.445466  
575.000000	0.451066  
575.500000	0.444200  
576.000000	0.442666  
576.500000	0.448800  
577.000000	0.435533  
577.500000	0.419600  
578.000000	0.416933  
578.500000	0.419466  
579.000000	0.428133  
579.500000	0.426333  
580.000000	0.406733  
580.500000	0.395266  
581.000000	0.398666  
581.500000	0.398733  
582.000000	0.392133  
582.500000	0.387400  
583.000000	0.380333  
583.500000	0.361800  
584.000000	0.354133  
584.500000	0.362466  
585.000000	0.361000  
585.500000	0.353266  
586.000000	0.354466  
586.500000	0.350400  
587.000000	0.340600  
587.500000	0.337933  
588.000000	0.332666  
588.500000	0.328533  
589.000000	0.329199  
589.500000	0.323200  
590.000000	0.313000  
590.500000	0.304000  
591.000000	0.299066  
591.500000	0.302600  
592.000000	0.305133  
592.500000	0.298066  
593.000000	0.291933  
593.500000	0.294266  
594.000000	0.288533  
594.500000	0.283466  
595.000000	0.286866  
595.500000	0.277800  
596.000000	0.266666  
596.500000	0.266133  
597.000000	0.261733  
597.500000	0.254666  
598.000000	0.249400  
598.500000	0.246400  
599.000000	0.250133  
599.500000	0.249266  
600.000000	0.241133  
600.500000	0.236466  
601.000000	0.239266  
601.500000	0.242000  
602.000000	0.243333  
602.500000	0.239400  
603.000000	0.228533  
603.500000	0.211733  
604.000000	0.202466  
604.500000	0.204933  
605.000000	0.212266  
605.500000	0.214000  
606.000000	0.208000  
606.500000	0.198466  
607.000000	0.200066  
607.500000	0.211266  
608.000000	0.209333  
608.500000	0.200800  
609.000000	0.195333  
609.500000	0.193000  
610.000000	0.193733  
610.500000	0.190933  
611.000000	0.187533  
611.500000	0.190933  
612.000000	0.187066  
612.500000	0.179666  
613.000000	0.176400  
613.500000	0.176466  
614.000000	0.179266  
614.500000	0.183266  
615.000000	0.176600  
615.500000	0.168933  
616.000000	0.172400  
616.500000	0.172666  
617.000000	0.163866  
617.500000	0.160333  
618.000000	0.158600  
618.500000	0.156533  
619.000000	0.157600  
619.500000	0.152466  
620.000000	0.139533  
620.500000	0.134266  
621.000000	0.142933  
621.500000	0.149800  
622.000000	0.147800  
622.500000	0.140933  
623.000000	0.131466  
623.500000	0.130333  
624.000000	0.140800  
624.500000	0.141133  
625.000000	0.135400  
625.500000	0.131266  
626.000000	0.127200  
626.500000	0.123466  
627.000000	0.117800  
627.500000	0.108866  
628.000000	0.111933  
628.500000	0.119666  
629.000000	0.121266  
629.500000	0.115133  
630.000000	0.111400  
630.500000	0.118333  
631.000000	0.124200  
631.500000	0.112400  
632.000000	0.101200  
632.500000	0.098866  
633.000000	0.094133  
633.500000	0.093333  
634.000000	0.102600  
634.500000	0.099800  
635.000000	0.091666  
635.500000	0.095000  
636.000000	0.091799  
636.500000	0.083866  
637.000000	0.088666  
637.500000	0.094133  
638.000000	0.091866  
638.500000	0.086800  
639.000000	0.083533  
639.500000	0.081133  
640.000000	0.079600  
640.500000	0.082733  
641.000000	0.081733  
641.500000	0.081199  
642.000000	0.089533  
642.500000	0.088266  
643.000000	0.079000  
643.500000	0.072533  
644.000000	0.062266  
644.500000	0.064666  
645.000000	0.075399  
645.500000	0.075200  
646.000000	0.073133  
646.500000	0.067066  
647.000000	0.060866  
647.500000	0.065066  
648.000000	0.070200  
648.500000	0.069666  
649.000000	0.063733  
649.500000	0.058666  
650.000000	0.058599  
650.500000	0.056000  
651.000000	0.059600  
651.500000	0.063133  
652.000000	0.053600  
652.500000	0.045666  
653.000000	0.059800  
653.500000	0.068266  
654.000000	0.057399  
654.500000	0.048066  
655.000000	0.044933  
655.500000	0.049133  
656.000000	0.059933  
656.500000	0.058000  
657.000000	0.050333  
657.500000	0.048200  
658.000000	0.052133  
658.500000	0.053133  
659.000000	0.044133  
659.500000	0.041933  
660.000000	0.053066  
660.500000	0.052466  
661.000000	0.043733  
661.500000	0.044866  
662.000000	0.048666  
662.500000	0.052200  
663.000000	0.060200  
663.500000	0.053933  
664.000000	0.041733  
664.500000	0.042066  
665.000000	0.044266  
665.500000	0.043000  
666.000000	0.041266  
666.500000	0.038066  
667.000000	0.039666  
667.500000	0.042733  
668.000000	0.041866  
668.500000	0.037666  
669.000000	0.035266  
669.500000	0.036933  
670.000000	0.032866  
670.500000	0.030533  
671.000000	0.036333  
671.500000	0.038866  
672.000000	0.037200  
672.500000	0.034933  
673.000000	0.032533  
673.500000	0.034333  
674.000000	0.037066  
674.500000	0.036533  
675.000000	0.033400  
675.500000	0.030933  
676.000000	0.030133  
676.500000	0.030733  
677.000000	0.032866  
677.500000	0.034266  
678.000000	0.034000  
678.500000	0.034133  
679.000000	0.035000  
679.500000	0.033600  
680.000000	0.037133  
680.500000	0.043266  
681.000000	0.039533  
681.500000	0.032333  
682.000000	0.031400  
682.500000	0.029800  
683.000000	0.028933  
683.500000	0.029666  
684.000000	0.030866  
684.500000	0.038199  
685.000000	0.041400  
685.500000	0.032066  
686.000000	0.027666  
686.500000	0.035933  
687.000000	0.038133  
687.500000	0.031799  
688.000000	0.027133  
688.500000	0.031533  
689.000000	0.039933  
689.500000	0.056400  
690.000000	0.092000  

