PE FL                   SPECTRUM    ASCII       PEDS        1.60        
  -1
01#132.SP
02/03/16
02:25:04.00
02/03/16
02:29:01.00


410.000000
1









LS55
425.00
2.50
2.50
SCAN
1
20
100
100
0
50
0
0
0
1
7
ON
600 370 
1 0 0
#HDR
-1
-1
#GR
NM

0.00002384185791015625
0.0
220.000000
0.500000
381
8
17.926000
-0.145000
#DATA
220.000000	0.000000  
220.500000	0.000000  
221.000000	0.000000  
221.500000	0.000000  
222.000000	0.000000  
222.500000	0.000000  
223.000000	0.021000  
223.500000	0.100000  
224.000000	0.075000  
224.500000	0.015000  
225.000000	0.059000  
225.500000	0.020000  
226.000000	0.092000  
226.500000	0.081000  
227.000000	0.084000  
227.500000	0.076000  
228.000000	0.154000  
228.500000	0.092000  
229.000000	0.096000  
229.500000	0.137000  
230.000000	0.016000  
230.500000	0.069000  
231.000000	0.033000  
231.500000	0.010000  
232.000000	0.048000  
232.500000	-0.001000 
233.000000	-0.145000 
233.500000	0.048000  
234.000000	0.058000  
234.500000	0.078000  
235.000000	0.000000  
235.500000	0.011000  
236.000000	0.062000  
236.500000	0.093000  
237.000000	0.040000  
237.500000	0.000000  
238.000000	0.010000  
238.500000	0.038000  
239.000000	0.008999  
239.500000	0.041000  
240.000000	0.030000  
240.500000	0.007000  
241.000000	0.032000  
241.500000	0.025000  
242.000000	0.014000  
242.500000	0.053000  
243.000000	0.008000  
243.500000	0.028000  
244.000000	0.013000  
244.500000	0.079000  
245.000000	0.130000  
245.500000	0.134000  
246.000000	0.242000  
246.500000	0.085999  
247.000000	0.104000  
247.500000	0.157000  
248.000000	0.101000  
248.500000	0.058000  
249.000000	0.089000  
249.500000	0.273000  
250.000000	0.161000  
250.500000	0.240000  
251.000000	0.400000  
251.500000	0.272000  
252.000000	0.428000  
252.500000	0.327000  
253.000000	0.437000  
253.500000	0.355000  
254.000000	0.608000  
254.500000	0.329000  
255.000000	0.582000  
255.500000	0.700000  
256.000000	0.535000  
256.500000	0.580000  
257.000000	0.803000  
257.500000	0.947000  
258.000000	1.110000  
258.500000	1.198000  
259.000000	1.244000  
259.500000	1.356000  
260.000000	1.380000  
260.500000	1.086000  
261.000000	0.957000  
261.500000	1.063000  
262.000000	1.240000  
262.500000	1.002000  
263.000000	1.085000  
263.500000	1.160000  
264.000000	1.212000  
264.500000	1.192000  
265.000000	1.424000  
265.500000	1.354000  
266.000000	1.168000  
266.500000	1.182000  
267.000000	0.871000  
267.500000	1.125000  
268.000000	1.155000  
268.500000	0.994000  
269.000000	1.326000  
269.500000	1.469000  
270.000000	1.155000  
270.500000	0.881000  
271.000000	0.864000  
271.500000	1.004000  
272.000000	1.157000  
272.500000	1.091000  
273.000000	1.170000  
273.500000	0.945000  
274.000000	0.914000  
274.500000	1.082000  
275.000000	1.073000  
275.500000	1.079000  
276.000000	0.892000  
276.500000	1.131000  
277.000000	1.073000  
277.500000	1.607000  
278.000000	1.323000  
278.500000	1.194000  
279.000000	1.125000  
279.500000	1.245000  
280.000000	1.448000  
280.500000	1.610000  
281.000000	1.692000  
281.500000	1.755000  
282.000000	2.048000  
282.500000	2.092000  
283.000000	2.032000  
283.500000	2.329000  
284.000000	2.260000  
284.500000	2.354000  
285.000000	2.450000  
285.500000	2.647000  
286.000000	2.782000  
286.500000	2.704000  
287.000000	2.790000  
287.500000	2.629000  
288.000000	2.802000  
288.500000	3.148000  
289.000000	3.099000  
289.500000	3.068000  
290.000000	3.364000  
290.500000	3.238000  
291.000000	3.238000  
291.500000	3.550000  
292.000000	3.292000  
292.500000	3.438000  
293.000000	3.754000  
293.500000	3.839000  
294.000000	3.394000  
294.500000	3.625000  
295.000000	3.555000  
295.500000	3.505000  
296.000000	3.647000  
296.500000	3.668000  
297.000000	3.836000  
297.500000	3.943000  
298.000000	3.780000  
298.500000	3.800000  
299.000000	3.794000  
299.500000	3.668000  
300.000000	3.638000  
300.500000	3.575000  
301.000000	3.440000  
301.500000	3.480000  
302.000000	3.262000  
302.500000	3.309000  
303.000000	3.208000  
303.500000	3.349000  
304.000000	3.177000  
304.500000	3.240000  
305.000000	3.232000  
305.500000	3.130000  
306.000000	2.809000  
306.500000	2.859000  
307.000000	2.767000  
307.500000	2.611000  
308.000000	2.471000  
308.500000	2.314000  
309.000000	2.370000  
309.500000	2.299000  
310.000000	2.316000  
310.500000	2.311000  
311.000000	2.050000  
311.500000	2.080000  
312.000000	1.906000  
312.500000	1.853000  
313.000000	1.629000  
313.500000	1.473000  
314.000000	1.654000  
314.500000	1.471000  
315.000000	1.300000  
315.500000	1.461000  
316.000000	1.126000  
316.500000	1.203000  
317.000000	1.108000  
317.500000	1.076000  
318.000000	0.941999  
318.500000	0.698000  
319.000000	0.864000  
319.500000	0.931000  
320.000000	0.859000  
320.500000	0.860000  
321.000000	0.819000  
321.500000	0.872000  
322.000000	0.919000  
322.500000	0.730000  
323.000000	0.960000  
323.500000	0.923000  
324.000000	0.897000  
324.500000	1.085000  
325.000000	1.081000  
325.500000	1.117000  
326.000000	1.118000  
326.500000	1.204000  
327.000000	1.373000  
327.500000	1.363000  
328.000000	1.473000  
328.500000	1.525000  
329.000000	1.943000  
329.500000	2.030000  
330.000000	1.946000  
330.500000	2.347000  
331.000000	2.479000  
331.500000	2.680000  
332.000000	2.896000  
332.500000	3.406000  
333.000000	3.711000  
333.500000	4.002000  
334.000000	4.281000  
334.500000	4.655000  
335.000000	5.282000  
335.500000	5.651000  
336.000000	6.027000  
336.500000	6.514000  
337.000000	7.152000  
337.500000	7.830000  
338.000000	8.263999  
338.500000	8.993000  
339.000000	9.180000  
339.500000	9.600000  
340.000000	10.245000 
340.500000	10.650000 
341.000000	11.029000 
341.500000	11.584000 
342.000000	11.740000 
342.500000	12.424000 
343.000000	12.955000 
343.500000	12.759000 
344.000000	13.137000 
344.500000	13.528000 
345.000000	13.919000 
345.500000	14.469000 
346.000000	14.627000 
346.500000	15.084000 
347.000000	14.968000 
347.500000	15.425000 
348.000000	15.388000 
348.500000	15.319000 
349.000000	15.267000 
349.500000	15.602000 
350.000000	15.868000 
350.500000	16.309000 
351.000000	16.058000 
351.500000	16.237000 
352.000000	16.096000 
352.500000	16.442000 
353.000000	16.287000 
353.500000	16.595000 
354.000000	16.490000 
354.500000	16.785000 
355.000000	16.744000 
355.500000	16.697000 
356.000000	16.398000 
356.500000	16.959000 
357.000000	16.925000 
357.500000	17.370000 
358.000000	16.962000 
358.500000	16.801000 
359.000000	16.884000 
359.500000	17.030000 
360.000000	17.333000 
360.500000	17.386000 
361.000000	17.387000 
361.500000	17.318000 
362.000000	17.521000 
362.500000	17.162000 
363.000000	17.783000 
363.500000	17.565000 
364.000000	17.591000 
364.500000	17.381000 
365.000000	17.926000 
365.500000	17.785000 
366.000000	17.697000 
366.500000	17.390000 
367.000000	17.645000 
367.500000	17.282000 
368.000000	16.719000 
368.500000	16.942000 
369.000000	16.752000 
369.500000	16.882000 
370.000000	16.349000 
370.500000	16.004000 
371.000000	15.924000 
371.500000	15.238000 
372.000000	15.310000 
372.500000	15.231000 
373.000000	14.532000 
373.500000	14.058000 
374.000000	13.677000 
374.500000	13.255000 
375.000000	12.918000 
375.500000	12.579000 
376.000000	12.107000 
376.500000	11.501000 
377.000000	10.631000 
377.500000	10.743000 
378.000000	10.268000 
378.500000	9.616000  
379.000000	9.176000  
379.500000	8.693000  
380.000000	8.270000  
380.500000	7.838000  
381.000000	7.399000  
381.500000	6.895000  
382.000000	6.065000  
382.500000	5.690000  
383.000000	5.288000  
383.500000	5.064000  
384.000000	4.514000  
384.500000	4.333000  
385.000000	3.873000  
385.500000	3.593000  
386.000000	3.085000  
386.500000	2.728000  
387.000000	2.773000  
387.500000	2.497000  
388.000000	2.120000  
388.500000	1.907000  
389.000000	1.687000  
389.500000	1.648000  
390.000000	1.373000  
390.500000	1.348000  
391.000000	1.196000  
391.500000	1.096000  
392.000000	0.937999  
392.500000	0.901000  
393.000000	0.752000  
393.500000	0.659000  
394.000000	0.572000  
394.500000	0.535000  
395.000000	0.473000  
395.500000	0.436000  
396.000000	0.332000  
396.500000	0.334000  
397.000000	0.277000  
397.500000	0.206000  
398.000000	0.235000  
398.500000	0.185000  
399.000000	0.265000  
399.500000	0.245000  
400.000000	0.209000  
400.500000	0.206000  
401.000000	0.190000  
401.500000	0.177000  
402.000000	0.171000  
402.500000	0.147000  
403.000000	0.135000  
403.500000	0.118000  
404.000000	0.216000  
404.500000	0.140000  
405.000000	0.122000  
405.500000	0.152000  
406.000000	0.170000  
406.500000	0.144000  
407.000000	0.142000  
407.500000	0.174000  
408.000000	0.168000  
408.500000	0.197000  
409.000000	0.216000  
409.500000	0.189000  
410.000000	0.117000  

