PE FL                   SPECTRUM    ASCII       PEDS        1.60        
  -1
01#130.SP
02/03/16
02:18:31.00
02/03/16
02:20:54.00


600.000000
1









LS55
360.00
5.00
5.00
SCAN
1
20
100
100
0
100
0
1
0
1
7
ON
430 390 
1 0 0
#HDR
-1
-1
#GR
NM

0.00002384185791015625
0.0
370.000000
0.500000
461
8
64.976219
0.268136
#DATA
370.000000	0.315000  
370.500000	0.332848  
371.000000	0.348598  
371.500000	0.374863  
372.000000	0.420030  
372.500000	0.488143  
373.000000	0.583969  
373.500000	0.712075  
374.000000	0.871159  
374.500000	1.057916  
375.000000	1.290386  
375.500000	1.604242  
376.000000	2.006825  
376.500000	2.494303  
377.000000	3.054401  
377.500000	3.696401  
378.000000	4.427833  
378.500000	5.298939  
379.000000	6.327280  
379.500000	7.502878  
380.000000	8.764030  
380.500000	10.149734 
381.000000	11.696272 
381.500000	13.391901 
382.000000	15.192795 
382.500000	17.117969 
383.000000	19.188401 
383.500000	21.274901 
384.000000	23.281537 
384.500000	25.288992 
385.000000	27.432378 
385.500000	29.722643 
386.000000	32.039916 
386.500000	34.338340 
387.000000	36.490909 
387.500000	38.515159 
388.000000	40.389795 
388.500000	42.367424 
389.000000	44.295310 
389.500000	46.127424 
390.000000	47.777250 
390.500000	49.400568 
391.000000	50.949931 
391.500000	52.371060 
392.000000	53.649696 
392.500000	54.895022 
393.000000	56.228477 
393.500000	57.387340 
394.000000	58.294356 
394.500000	58.942469 
395.000000	59.660681 
395.500000	60.402378 
396.000000	61.131727 
396.500000	61.765962 
397.000000	62.390083 
397.500000	62.858060 
398.000000	63.203386 
398.500000	63.575348 
399.000000	63.998757 
399.500000	64.273954 
400.000000	64.339916 
400.500000	64.380151 
401.000000	64.575893 
401.500000	64.811984 
402.000000	64.972962 
402.500000	64.976219 
403.000000	64.922522 
403.500000	64.866522 
404.000000	64.843712 
404.500000	64.796696 
405.000000	64.705924 
405.500000	64.555848 
406.000000	64.427242 
406.500000	64.392946 
407.000000	64.322704 
407.500000	64.195606 
408.000000	64.046515 
408.500000	63.980628 
409.000000	63.903416 
409.500000	63.850522 
410.000000	63.815363 
410.500000	63.854083 
411.000000	63.866659 
411.500000	63.845643 
412.000000	63.797583 
412.500000	63.753636 
413.000000	63.839598 
413.500000	63.949765 
414.000000	63.997348 
414.500000	63.856825 
415.000000	63.822750 
415.500000	63.817515 
416.000000	63.799962 
416.500000	63.675522 
417.000000	63.660681 
417.500000	63.656166 
418.000000	63.559765 
418.500000	63.453227 
419.000000	63.392121 
419.500000	63.452719 
420.000000	63.379098 
420.500000	63.252045 
421.000000	63.031492 
421.500000	62.861765 
422.000000	62.588674 
422.500000	62.381431 
423.000000	62.244704 
423.500000	62.228613 
424.000000	62.141045 
424.500000	61.890393 
425.000000	61.539174 
425.500000	61.222871 
426.000000	60.947492 
426.500000	60.640022 
427.000000	60.292166 
427.500000	59.873772 
428.000000	59.531424 
428.500000	59.245492 
429.000000	58.938712 
429.500000	58.450916 
430.000000	57.939628 
430.500000	57.535045 
431.000000	57.143477 
431.500000	56.641393 
432.000000	56.060666 
432.500000	55.618825 
433.000000	55.281840 
433.500000	54.876772 
434.000000	54.188515 
434.500000	53.328704 
435.000000	52.470833 
435.500000	51.773795 
436.000000	51.163674 
436.500000	50.532757 
437.000000	49.886507 
437.500000	49.341015 
438.000000	48.769651 
438.500000	48.127356 
439.000000	47.379810 
439.500000	46.649742 
440.000000	45.924310 
440.500000	45.208674 
441.000000	44.458303 
441.500000	43.763462 
442.000000	43.051045 
442.500000	42.300818 
443.000000	41.577439 
443.500000	40.931242 
444.000000	40.313272 
444.500000	39.590818 
445.000000	38.760227 
445.500000	37.976772 
446.000000	37.237363 
446.500000	36.489022 
447.000000	35.764909 
447.500000	35.133212 
448.000000	34.519818 
448.500000	33.817333 
449.000000	33.034628 
449.500000	32.316848 
450.000000	31.672477 
450.500000	31.024742 
451.000000	30.377393 
451.500000	29.771992 
452.000000	29.155712 
452.500000	28.499219 
453.000000	27.735507 
453.500000	26.983492 
454.000000	26.341000 
454.500000	25.813469 
455.000000	25.302272 
455.500000	24.748681 
456.000000	24.202931 
456.500000	23.595727 
457.000000	22.960969 
457.500000	22.296446 
458.000000	21.762727 
458.500000	21.264393 
459.000000	20.808090 
459.500000	20.328378 
460.000000	19.873810 
460.500000	19.371000 
461.000000	18.821386 
461.500000	18.283363 
462.000000	17.865363 
462.500000	17.538742 
463.000000	17.212348 
463.500000	16.781840 
464.000000	16.308469 
464.500000	15.849098 
465.000000	15.484590 
465.500000	15.138931 
466.000000	14.794878 
466.500000	14.398454 
467.000000	14.014825 
467.500000	13.691606 
468.000000	13.382893 
468.500000	13.039598 
469.000000	12.661856 
469.500000	12.329159 
470.000000	12.020007 
470.500000	11.735613 
471.000000	11.482750 
471.500000	11.264840 
472.000000	11.031643 
472.500000	10.722659 
473.000000	10.432598 
473.500000	10.196136 
474.000000	10.021575 
474.500000	9.796583  
475.000000	9.550598  
475.500000	9.328318  
476.000000	9.175393  
476.500000	9.028174  
477.000000	8.820303  
477.500000	8.584992  
478.000000	8.375537  
478.500000	8.213037  
479.000000	8.030545  
479.500000	7.808621  
480.000000	7.582840  
480.500000	7.398204  
481.000000	7.277174  
481.500000	7.181636  
482.000000	7.056507  
482.500000	6.886833  
483.000000	6.732992  
483.500000	6.610598  
484.000000	6.483840  
484.500000	6.355613  
485.000000	6.234924  
485.500000	6.117810  
486.000000	5.957234  
486.500000	5.821590  
487.000000	5.745333  
487.500000	5.700712  
488.000000	5.598924  
488.500000	5.462719  
489.000000	5.318431  
489.500000	5.215863  
490.000000	5.135363  
490.500000	5.051257  
491.000000	4.959560  
491.500000	4.882121  
492.000000	4.803007  
492.500000	4.692393  
493.000000	4.564007  
493.500000	4.454166  
494.000000	4.404666  
494.500000	4.377499  
495.000000	4.342204  
495.500000	4.269636  
496.000000	4.174060  
496.500000	4.077886  
497.000000	4.009772  
497.500000	3.963643  
498.000000	3.913477  
498.500000	3.857984  
499.000000	3.795196  
499.500000	3.744333  
500.000000	3.686053  
500.500000	3.616909  
501.000000	3.554553  
501.500000	3.521719  
502.000000	3.484757  
502.500000	3.422916  
503.000000	3.343795  
503.500000	3.286083  
504.000000	3.249303  
504.500000	3.223174  
505.000000	3.170840  
505.500000	3.114265  
506.000000	3.060712  
506.500000	3.031643  
507.000000	3.003666  
507.500000	2.968060  
508.000000	2.911037  
508.500000	2.857492  
509.000000	2.818068  
509.500000	2.797007  
510.000000	2.781242  
510.500000	2.752363  
511.000000	2.715416  
511.500000	2.662174  
512.000000	2.613477  
512.500000	2.564136  
513.000000	2.527401  
513.500000	2.486515  
514.000000	2.461477  
514.500000	2.437734  
515.000000	2.417916  
515.500000	2.378704  
516.000000	2.327454  
516.500000	2.287606  
517.000000	2.257613  
517.500000	2.216181  
518.000000	2.164204  
518.500000	2.129522  
519.000000	2.123045  
519.500000	2.121522  
520.000000	2.090583  
520.500000	2.041257  
521.000000	1.991356  
521.500000	1.952340  
522.000000	1.922166  
522.500000	1.888719  
523.000000	1.860765  
523.500000	1.834704  
524.000000	1.812719  
524.500000	1.774636  
525.000000	1.747416  
525.500000	1.727651  
526.000000	1.725250  
526.500000	1.712704  
527.000000	1.697712  
527.500000	1.675621  
528.000000	1.656651  
528.500000	1.635356  
529.000000	1.598886  
529.500000	1.557636  
530.000000	1.519242  
530.500000	1.498469  
531.000000	1.475371  
531.500000	1.463636  
532.000000	1.431651  
532.500000	1.410295  
533.000000	1.389219  
533.500000	1.393681  
534.000000	1.377492  
534.500000	1.353727  
535.000000	1.325378  
535.500000	1.305522  
536.000000	1.271583  
536.500000	1.234606  
537.000000	1.223666  
537.500000	1.226530  
538.000000	1.224863  
538.500000	1.206371  
539.000000	1.191121  
539.500000	1.173939  
540.000000	1.163030  
540.500000	1.144848  
541.000000	1.130227  
541.500000	1.109196  
542.000000	1.094848  
542.500000	1.074590  
543.000000	1.047212  
543.500000	1.017742  
544.000000	1.007000  
544.500000	1.008825  
545.000000	1.008037  
545.500000	1.000598  
546.000000	0.993575  
546.500000	0.984212  
547.000000	0.967575  
547.500000	0.945174  
548.000000	0.929553  
548.500000	0.910901  
549.000000	0.897500  
549.500000	0.887969  
550.000000	0.890007  
550.500000	0.886999  
551.000000	0.874537  
551.500000	0.855386  
552.000000	0.841128  
552.500000	0.832628  
553.000000	0.820939  
553.500000	0.811227  
554.000000	0.804136  
554.500000	0.802651  
555.000000	0.797371  
555.500000	0.783886  
556.000000	0.758727  
556.500000	0.736325  
557.000000	0.728181  
557.500000	0.739174  
558.000000	0.745651  
558.500000	0.742674  
559.000000	0.732272  
559.500000	0.727999  
560.000000	0.716022  
560.500000	0.703886  
561.000000	0.690484  
561.500000	0.680159  
562.000000	0.667810  
562.500000	0.657242  
563.000000	0.653780  
563.500000	0.650818  
564.000000	0.642696  
564.500000	0.631204  
565.000000	0.623787  
565.500000	0.614446  
566.000000	0.606227  
566.500000	0.597810  
567.000000	0.587727  
567.500000	0.564318  
568.000000	0.547015  
568.500000	0.544098  
569.000000	0.561257  
569.500000	0.567636  
570.000000	0.560689  
570.500000	0.539613  
571.000000	0.530757  
571.500000	0.525515  
572.000000	0.525325  
572.500000	0.521227  
573.000000	0.517318  
573.500000	0.512363  
574.000000	0.510568  
574.500000	0.508704  
575.000000	0.513128  
575.500000	0.513196  
576.000000	0.498628  
576.500000	0.467621  
577.000000	0.443946  
577.500000	0.440734  
578.000000	0.457159  
578.500000	0.468537  
579.000000	0.470446  
579.500000	0.463234  
580.000000	0.447121  
580.500000	0.427348  
581.000000	0.418462  
581.500000	0.421810  
582.000000	0.425136  
582.500000	0.416068  
583.000000	0.401962  
583.500000	0.392416  
584.000000	0.391409  
584.500000	0.390045  
585.000000	0.386787  
585.500000	0.373795  
586.000000	0.357075  
586.500000	0.348818  
587.000000	0.356219  
587.500000	0.363606  
588.000000	0.361151  
588.500000	0.351272  
589.000000	0.353727  
589.500000	0.362742  
590.000000	0.369727  
590.500000	0.363553  
591.000000	0.349871  
591.500000	0.336969  
592.000000	0.332219  
592.500000	0.326037  
593.000000	0.314795  
593.500000	0.304787  
594.000000	0.302628  
594.500000	0.304340  
595.000000	0.303734  
595.500000	0.298621  
596.000000	0.300977  
596.500000	0.299166  
597.000000	0.303416  
597.500000	0.298833  
598.000000	0.289871  
598.500000	0.271159  
599.000000	0.268136  
599.500000	0.280212  
600.000000	0.309999  

