PE FL                   SPECTRUM    ASCII       PEDS        1.60        
  -1
01#136.SP
02/03/16
02:38:38.00
02/03/16
02:42:31.00


410.000000
1









LS55
430.00
5.00
5.00
SCAN
1
20
100
100
0
50
0
0
0
1
7
ON
430 297 
1 0 0
#HDR
-1
-1
#GR
NM

0.00002384185791015625
0.0
220.000000
0.500000
381
8
58.244800
0.767066
#DATA
220.000000	1.822000  
220.500000	1.697133  
221.000000	1.640733  
221.500000	1.566466  
222.000000	1.504066  
222.500000	1.478533  
223.000000	1.435133  
223.500000	1.418200  
224.000000	1.435200  
224.500000	1.401466  
225.000000	1.326066  
225.500000	1.258266  
226.000000	1.230933  
226.500000	1.241133  
227.000000	1.247600  
227.500000	1.225133  
228.000000	1.225866  
228.500000	1.240333  
229.000000	1.211866  
229.500000	1.151666  
230.000000	1.129800  
230.500000	1.119466  
231.000000	1.073600  
231.500000	1.026933  
232.000000	1.005533  
232.500000	0.987133  
233.000000	0.991533  
233.500000	1.000466  
234.000000	0.961933  
234.500000	0.903200  
235.000000	0.887933  
235.500000	0.928000  
236.000000	0.952333  
236.500000	0.917333  
237.000000	0.860133  
237.500000	0.809399  
238.000000	0.814666  
238.500000	0.847600  
239.000000	0.843600  
239.500000	0.832199  
240.000000	0.815266  
240.500000	0.800266  
241.000000	0.834000  
241.500000	0.866800  
242.000000	0.857799  
242.500000	0.839800  
243.000000	0.876733  
243.500000	0.941266  
244.000000	0.961199  
244.500000	0.955799  
245.000000	0.994333  
245.500000	1.070200  
246.000000	1.111733  
246.500000	1.127800  
247.000000	1.172000  
247.500000	1.219666  
248.000000	1.260866  
248.500000	1.330466  
249.000000	1.415133  
249.500000	1.481133  
250.000000	1.582200  
250.500000	1.731933  
251.000000	1.847066  
251.500000	1.958600  
252.000000	2.108066  
252.500000	2.200733  
253.000000	2.289666  
253.500000	2.453733  
254.000000	2.625400  
254.500000	2.767600  
255.000000	2.942733  
255.500000	3.173933  
256.000000	3.414133  
256.500000	3.607400  
257.000000	3.715666  
257.500000	3.791866  
258.000000	3.896066  
258.500000	4.048200  
259.000000	4.154133  
259.500000	4.194400  
260.000000	4.230933  
260.500000	4.288333  
261.000000	4.333266  
261.500000	4.425266  
262.000000	4.506533  
262.500000	4.554333  
263.000000	4.592000  
263.500000	4.640600  
264.000000	4.707866  
264.500000	4.765066  
265.000000	4.779266  
265.500000	4.774333  
266.000000	4.726200  
266.500000	4.653933  
267.000000	4.631866  
267.500000	4.659133  
268.000000	4.649866  
268.500000	4.578000  
269.000000	4.521266  
269.500000	4.457200  
270.000000	4.366933  
270.500000	4.323600  
271.000000	4.287399  
271.500000	4.243200  
272.000000	4.217000  
272.500000	4.141533  
273.000000	4.072266  
273.500000	4.096333  
274.000000	4.156266  
274.500000	4.223333  
275.000000	4.258266  
275.500000	4.248800  
276.000000	4.285466  
276.500000	4.404133  
277.000000	4.550266  
277.500000	4.692600  
278.000000	4.834733  
278.500000	4.986600  
279.000000	5.158866  
279.500000	5.395266  
280.000000	5.627600  
280.500000	5.850600  
281.000000	6.108400  
281.500000	6.364533  
282.000000	6.633266  
282.500000	6.917200  
283.000000	7.146200  
283.500000	7.383533  
284.000000	7.650533  
284.500000	7.942866  
285.000000	8.301133  
285.500000	8.614866  
286.000000	8.892133  
286.500000	9.169333  
287.000000	9.359666  
287.500000	9.556066  
288.000000	9.863333  
288.500000	10.148333 
289.000000	10.418600 
289.500000	10.658266 
290.000000	10.812666 
290.500000	11.024933 
291.000000	11.314200 
291.500000	11.482200 
292.000000	11.571200 
292.500000	11.705066 
293.000000	11.829266 
293.500000	11.925066 
294.000000	12.079800 
294.500000	12.272866 
295.000000	12.389400 
295.500000	12.364866 
296.000000	12.327800 
296.500000	12.376733 
297.000000	12.393733 
297.500000	12.361133 
298.000000	12.345933 
298.500000	12.305000 
299.000000	12.189533 
299.500000	12.064133 
300.000000	11.946866 
300.500000	11.824000 
301.000000	11.713200 
301.500000	11.578866 
302.000000	11.370066 
302.500000	11.188533 
303.000000	11.050066 
303.500000	10.863333 
304.000000	10.566600 
304.500000	10.291400 
305.000000	10.140866 
305.500000	9.964733  
306.000000	9.666666  
306.500000	9.390333  
307.000000	9.161799  
307.500000	8.874200  
308.000000	8.532800  
308.500000	8.214533  
309.000000	7.934999  
309.500000	7.666400  
310.000000	7.366400  
310.500000	7.067666  
311.000000	6.770866  
311.500000	6.455866  
312.000000	6.142533  
312.500000	5.864999  
313.000000	5.601200  
313.500000	5.373533  
314.000000	5.184133  
314.500000	4.968133  
315.000000	4.709600  
315.500000	4.495933  
316.000000	4.330533  
316.500000	4.170133  
317.000000	4.026666  
317.500000	3.890333  
318.000000	3.732800  
318.500000	3.600466  
319.000000	3.518200  
319.500000	3.481333  
320.000000	3.476000  
320.500000	3.445666  
321.000000	3.378133  
321.500000	3.334666  
322.000000	3.344466  
322.500000	3.407600  
323.000000	3.496666  
323.500000	3.581533  
324.000000	3.657600  
324.500000	3.773200  
325.000000	3.924599  
325.500000	4.089866  
326.000000	4.251466  
326.500000	4.449600  
327.000000	4.728333  
327.500000	5.065200  
328.000000	5.443933  
328.500000	5.884133  
329.000000	6.362399  
329.500000	6.900933  
330.000000	7.565333  
330.500000	8.326466  
331.000000	9.114999  
331.500000	9.907200  
332.000000	10.786466 
332.500000	11.836866 
333.000000	12.964200 
333.500000	14.098400 
334.000000	15.345866 
334.500000	16.702933 
335.000000	18.161733 
335.500000	19.680400 
336.000000	21.237000 
336.500000	22.869600 
337.000000	24.509800 
337.500000	26.041466 
338.000000	27.501866 
338.500000	29.014733 
339.000000	30.556466 
339.500000	31.970200 
340.000000	33.443066 
340.500000	34.946866 
341.000000	36.343400 
341.500000	37.757666 
342.000000	39.115666 
342.500000	40.242466 
343.000000	41.247533 
343.500000	42.253266 
344.000000	43.405399 
344.500000	44.523333 
345.000000	45.436600 
345.500000	46.216933 
346.000000	47.044533 
346.500000	47.865200 
347.000000	48.554466 
347.500000	49.052533 
348.000000	49.513133 
348.500000	50.152266 
349.000000	50.822333 
349.500000	51.214200 
350.000000	51.577000 
350.500000	52.088533 
351.000000	52.438733 
351.500000	52.639733 
352.000000	52.987133 
352.500000	53.403000 
353.000000	53.590533 
353.500000	53.700599 
354.000000	54.033066 
354.500000	54.505533 
355.000000	54.708733 
355.500000	54.797266 
356.000000	55.064400 
356.500000	55.401666 
357.000000	55.843400 
357.500000	56.320933 
358.000000	56.536933 
358.500000	56.694666 
359.000000	56.880000 
359.500000	57.020666 
360.000000	57.288866 
360.500000	57.456133 
361.000000	57.473600 
361.500000	57.642266 
362.000000	57.939533 
362.500000	58.089600 
363.000000	57.987000 
363.500000	57.982333 
364.000000	58.240666 
364.500000	58.244800 
365.000000	58.014066 
365.500000	57.820866 
366.000000	57.726466 
366.500000	57.549800 
367.000000	57.141533 
367.500000	56.608333 
368.000000	56.108066 
368.500000	55.669666 
369.000000	55.205266 
369.500000	54.682266 
370.000000	54.140733 
370.500000	53.404866 
371.000000	52.532933 
371.500000	51.602533 
372.000000	50.524400 
372.500000	49.530466 
373.000000	48.536133 
373.500000	47.232533 
374.000000	45.724400 
374.500000	44.337533 
375.000000	43.088999 
375.500000	41.780666 
376.000000	40.325533 
376.500000	38.882800 
377.000000	37.475333 
377.500000	35.941666 
378.000000	34.352066 
378.500000	32.865200 
379.000000	31.269466 
379.500000	29.508200 
380.000000	27.873600 
380.500000	26.329400 
381.000000	24.743133 
381.500000	23.198066 
382.000000	21.689933 
382.500000	20.129533 
383.000000	18.649533 
383.500000	17.337933 
384.000000	16.150333 
384.500000	15.031666 
385.000000	13.852933 
385.500000	12.601466 
386.000000	11.457800 
386.500000	10.462600 
387.000000	9.525866  
387.500000	8.588866  
388.000000	7.742133  
388.500000	7.006933  
389.000000	6.320866  
389.500000	5.707866  
390.000000	5.175133  
390.500000	4.674866  
391.000000	4.230666  
391.500000	3.869600  
392.000000	3.548400  
392.500000	3.229933  
393.000000	2.921733  
393.500000	2.671800  
394.000000	2.473800  
394.500000	2.258266  
395.000000	2.065733  
395.500000	1.903466  
396.000000	1.724466  
396.500000	1.579600  
397.000000	1.491266  
397.500000	1.405600  
398.000000	1.309933  
398.500000	1.222733  
399.000000	1.166000  
399.500000	1.122933  
400.000000	1.074333  
400.500000	1.017733  
401.000000	0.957199  
401.500000	0.913066  
402.000000	0.894066  
402.500000	0.877999  
403.000000	0.855799  
403.500000	0.833399  
404.000000	0.808200  
404.500000	0.796466  
405.000000	0.799600  
405.500000	0.788933  
406.000000	0.769666  
406.500000	0.769333  
407.000000	0.771600  
407.500000	0.767066  
408.000000	0.767066  
408.500000	0.768666  
409.000000	0.776333  
409.500000	0.802200  
410.000000	0.841000  

