PE FL                   SPECTRUM    ASCII       PEDS        1.60        
  -1
01#124.SP
02/03/16
01:29:19.00
02/03/16
01:34:25.00


750.000000
1









LS55
275.00
2.50
2.50
SCAN
1
20
100
100
0
50
0
1
0
1
7
ON
435 365 
1 0 0
#HDR
-1
-1
#GR
NM

0.00002384185791015625
0.0
500.000000
0.500000
501
8
0.470000
0.000000
#DATA
500.000000	0.000000 
500.500000	0.000000 
501.000000	0.000000 
501.500000	0.000000 
502.000000	0.000000 
502.500000	0.000000 
503.000000	0.000000 
503.500000	0.000000 
504.000000	0.000000 
504.500000	0.000000 
505.000000	0.000000 
505.500000	0.000000 
506.000000	0.000000 
506.500000	0.000000 
507.000000	0.000000 
507.500000	0.000000 
508.000000	0.000000 
508.500000	0.000000 
509.000000	0.000000 
509.500000	0.000000 
510.000000	0.000000 
510.500000	0.000000 
511.000000	0.000000 
511.500000	0.000000 
512.000000	0.000000 
512.500000	0.000000 
513.000000	0.000000 
513.500000	0.000000 
514.000000	0.000000 
514.500000	0.000000 
515.000000	0.000000 
515.500000	0.000000 
516.000000	0.000000 
516.500000	0.000000 
517.000000	0.000000 
517.500000	0.000000 
518.000000	0.000000 
518.500000	0.000000 
519.000000	0.000000 
519.500000	0.000000 
520.000000	0.000000 
520.500000	0.000000 
521.000000	0.000000 
521.500000	0.000000 
522.000000	0.000000 
522.500000	0.000000 
523.000000	0.000000 
523.500000	0.000000 
524.000000	0.000000 
524.500000	0.000000 
525.000000	0.000000 
525.500000	0.000000 
526.000000	0.000000 
526.500000	0.000000 
527.000000	0.000000 
527.500000	0.000000 
528.000000	0.000000 
528.500000	0.000000 
529.000000	0.000000 
529.500000	0.000000 
530.000000	0.000000 
530.500000	0.000000 
531.000000	0.000000 
531.500000	0.000000 
532.000000	0.000000 
532.500000	0.000000 
533.000000	0.000000 
533.500000	0.000000 
534.000000	0.000000 
534.500000	0.000000 
535.000000	0.000000 
535.500000	0.000000 
536.000000	0.000000 
536.500000	0.000000 
537.000000	0.000000 
537.500000	0.000000 
538.000000	0.000000 
538.500000	0.000000 
539.000000	0.000000 
539.500000	0.000000 
540.000000	0.000000 
540.500000	0.000000 
541.000000	0.000000 
541.500000	0.000000 
542.000000	0.000000 
542.500000	0.000000 
543.000000	0.000000 
543.500000	0.000000 
544.000000	0.000000 
544.500000	0.000000 
545.000000	0.000000 
545.500000	0.000000 
546.000000	0.000000 
546.500000	0.000000 
547.000000	0.000000 
547.500000	0.000000 
548.000000	0.000000 
548.500000	0.000000 
549.000000	0.000000 
549.500000	0.007000 
550.000000	0.044000 
550.500000	0.095000 
551.000000	0.127000 
551.500000	0.255000 
552.000000	0.274000 
552.500000	0.375000 
553.000000	0.451000 
553.500000	0.376000 
554.000000	0.470000 
554.500000	0.419000 
555.000000	0.305000 
555.500000	0.228000 
556.000000	0.127000 
556.500000	0.107000 
557.000000	0.063000 
557.500000	0.159000 
558.000000	0.024000 
558.500000	0.000000 
559.000000	0.000000 
559.500000	0.000000 
560.000000	0.000000 
560.500000	0.000000 
561.000000	0.000000 
561.500000	0.000000 
562.000000	0.000000 
562.500000	0.000000 
563.000000	0.000000 
563.500000	0.000000 
564.000000	0.000000 
564.500000	0.000000 
565.000000	0.000000 
565.500000	0.000000 
566.000000	0.000000 
566.500000	0.000000 
567.000000	0.000000 
567.500000	0.000000 
568.000000	0.000000 
568.500000	0.000000 
569.000000	0.000000 
569.500000	0.000000 
570.000000	0.000000 
570.500000	0.000000 
571.000000	0.000000 
571.500000	0.000000 
572.000000	0.000000 
572.500000	0.000000 
573.000000	0.000000 
573.500000	0.000000 
574.000000	0.000000 
574.500000	0.000000 
575.000000	0.000000 
575.500000	0.000000 
576.000000	0.000000 
576.500000	0.000000 
577.000000	0.000000 
577.500000	0.000000 
578.000000	0.000000 
578.500000	0.000000 
579.000000	0.000000 
579.500000	0.000000 
580.000000	0.000000 
580.500000	0.000000 
581.000000	0.000000 
581.500000	0.000000 
582.000000	0.000000 
582.500000	0.000000 
583.000000	0.000000 
583.500000	0.000000 
584.000000	0.000000 
584.500000	0.000000 
585.000000	0.000000 
585.500000	0.000000 
586.000000	0.000000 
586.500000	0.000000 
587.000000	0.000000 
587.500000	0.000000 
588.000000	0.000000 
588.500000	0.000000 
589.000000	0.000000 
589.500000	0.000000 
590.000000	0.000000 
590.500000	0.000000 
591.000000	0.000000 
591.500000	0.000000 
592.000000	0.000000 
592.500000	0.000000 
593.000000	0.000000 
593.500000	0.000000 
594.000000	0.000000 
594.500000	0.000000 
595.000000	0.000000 
595.500000	0.000000 
596.000000	0.000000 
596.500000	0.000000 
597.000000	0.000000 
597.500000	0.000000 
598.000000	0.000000 
598.500000	0.000000 
599.000000	0.000000 
599.500000	0.000000 
600.000000	0.000000 
600.500000	0.000000 
601.000000	0.000000 
601.500000	0.000000 
602.000000	0.000000 
602.500000	0.000000 
603.000000	0.000000 
603.500000	0.000000 
604.000000	0.000000 
604.500000	0.000000 
605.000000	0.000000 
605.500000	0.000000 
606.000000	0.000000 
606.500000	0.000000 
607.000000	0.000000 
607.500000	0.000000 
608.000000	0.000000 
608.500000	0.000000 
609.000000	0.000000 
609.500000	0.000000 
610.000000	0.000000 
610.500000	0.000000 
611.000000	0.000000 
611.500000	0.000000 
612.000000	0.000000 
612.500000	0.000000 
613.000000	0.000000 
613.500000	0.000000 
614.000000	0.000000 
614.500000	0.000000 
615.000000	0.000000 
615.500000	0.000000 
616.000000	0.000000 
616.500000	0.000000 
617.000000	0.000000 
617.500000	0.000000 
618.000000	0.000000 
618.500000	0.000000 
619.000000	0.000000 
619.500000	0.000000 
620.000000	0.000000 
620.500000	0.000000 
621.000000	0.000000 
621.500000	0.000000 
622.000000	0.000000 
622.500000	0.000000 
623.000000	0.000000 
623.500000	0.000000 
624.000000	0.000000 
624.500000	0.000000 
625.000000	0.000000 
625.500000	0.000000 
626.000000	0.000000 
626.500000	0.000000 
627.000000	0.000000 
627.500000	0.000000 
628.000000	0.000000 
628.500000	0.000000 
629.000000	0.000000 
629.500000	0.000000 
630.000000	0.000000 
630.500000	0.000000 
631.000000	0.000000 
631.500000	0.000000 
632.000000	0.000000 
632.500000	0.000000 
633.000000	0.000000 
633.500000	0.000000 
634.000000	0.000000 
634.500000	0.000000 
635.000000	0.000000 
635.500000	0.000000 
636.000000	0.000000 
636.500000	0.000000 
637.000000	0.000000 
637.500000	0.000000 
638.000000	0.000000 
638.500000	0.000000 
639.000000	0.000000 
639.500000	0.000000 
640.000000	0.000000 
640.500000	0.000000 
641.000000	0.000000 
641.500000	0.000000 
642.000000	0.000000 
642.500000	0.000000 
643.000000	0.000000 
643.500000	0.000000 
644.000000	0.000000 
644.500000	0.000000 
645.000000	0.000000 
645.500000	0.000000 
646.000000	0.000000 
646.500000	0.000000 
647.000000	0.000000 
647.500000	0.000000 
648.000000	0.000000 
648.500000	0.000000 
649.000000	0.000000 
649.500000	0.000000 
650.000000	0.000000 
650.500000	0.000000 
651.000000	0.000000 
651.500000	0.000000 
652.000000	0.000000 
652.500000	0.000000 
653.000000	0.000000 
653.500000	0.000000 
654.000000	0.000000 
654.500000	0.000000 
655.000000	0.000000 
655.500000	0.000000 
656.000000	0.000000 
656.500000	0.000000 
657.000000	0.000000 
657.500000	0.000000 
658.000000	0.000000 
658.500000	0.000000 
659.000000	0.000000 
659.500000	0.000000 
660.000000	0.000000 
660.500000	0.000000 
661.000000	0.000000 
661.500000	0.000000 
662.000000	0.000000 
662.500000	0.000000 
663.000000	0.000000 
663.500000	0.000000 
664.000000	0.013000 
664.500000	0.050000 
665.000000	0.000000 
665.500000	0.000000 
666.000000	0.000000 
666.500000	0.000000 
667.000000	0.000000 
667.500000	0.000000 
668.000000	0.000000 
668.500000	0.000000 
669.000000	0.000000 
669.500000	0.007000 
670.000000	0.024000 
670.500000	0.000000 
671.000000	0.000000 
671.500000	0.000000 
672.000000	0.000000 
672.500000	0.000000 
673.000000	0.000000 
673.500000	0.000000 
674.000000	0.000000 
674.500000	0.000000 
675.000000	0.000000 
675.500000	0.000000 
676.000000	0.000000 
676.500000	0.000000 
677.000000	0.000000 
677.500000	0.000000 
678.000000	0.000000 
678.500000	0.000000 
679.000000	0.000000 
679.500000	0.000000 
680.000000	0.000000 
680.500000	0.000000 
681.000000	0.000000 
681.500000	0.000000 
682.000000	0.000000 
682.500000	0.000000 
683.000000	0.000000 
683.500000	0.000000 
684.000000	0.000000 
684.500000	0.000000 
685.000000	0.000000 
685.500000	0.000000 
686.000000	0.000000 
686.500000	0.000000 
687.000000	0.000000 
687.500000	0.000000 
688.000000	0.000000 
688.500000	0.000000 
689.000000	0.000000 
689.500000	0.000000 
690.000000	0.000000 
690.500000	0.000000 
691.000000	0.000000 
691.500000	0.000000 
692.000000	0.000000 
692.500000	0.000000 
693.000000	0.000000 
693.500000	0.000000 
694.000000	0.000000 
694.500000	0.000000 
695.000000	0.000000 
695.500000	0.000000 
696.000000	0.000000 
696.500000	0.000000 
697.000000	0.000000 
697.500000	0.000000 
698.000000	0.000000 
698.500000	0.000000 
699.000000	0.000000 
699.500000	0.000000 
700.000000	0.000000 
700.500000	0.000000 
701.000000	0.000000 
701.500000	0.000000 
702.000000	0.000000 
702.500000	0.000000 
703.000000	0.000000 
703.500000	0.000000 
704.000000	0.000000 
704.500000	0.000000 
705.000000	0.000000 
705.500000	0.000000 
706.000000	0.000000 
706.500000	0.000000 
707.000000	0.000000 
707.500000	0.000000 
708.000000	0.000000 
708.500000	0.000000 
709.000000	0.000000 
709.500000	0.000000 
710.000000	0.000000 
710.500000	0.000000 
711.000000	0.000000 
711.500000	0.000000 
712.000000	0.000000 
712.500000	0.000000 
713.000000	0.000000 
713.500000	0.000000 
714.000000	0.000000 
714.500000	0.000000 
715.000000	0.000000 
715.500000	0.000000 
716.000000	0.000000 
716.500000	0.000000 
717.000000	0.000000 
717.500000	0.000000 
718.000000	0.000000 
718.500000	0.000000 
719.000000	0.000000 
719.500000	0.000000 
720.000000	0.000000 
720.500000	0.000000 
721.000000	0.000000 
721.500000	0.000000 
722.000000	0.000000 
722.500000	0.000000 
723.000000	0.000000 
723.500000	0.000000 
724.000000	0.000000 
724.500000	0.000000 
725.000000	0.000000 
725.500000	0.000000 
726.000000	0.000000 
726.500000	0.000000 
727.000000	0.000000 
727.500000	0.000000 
728.000000	0.000000 
728.500000	0.000000 
729.000000	0.000000 
729.500000	0.000000 
730.000000	0.000000 
730.500000	0.000000 
731.000000	0.000000 
731.500000	0.000000 
732.000000	0.000000 
732.500000	0.000000 
733.000000	0.000000 
733.500000	0.000000 
734.000000	0.000000 
734.500000	0.000000 
735.000000	0.000000 
735.500000	0.000000 
736.000000	0.000000 
736.500000	0.000000 
737.000000	0.000000 
737.500000	0.000000 
738.000000	0.000000 
738.500000	0.000000 
739.000000	0.000000 
739.500000	0.000000 
740.000000	0.000000 
740.500000	0.000000 
741.000000	0.000000 
741.500000	0.000000 
742.000000	0.000000 
742.500000	0.000000 
743.000000	0.000000 
743.500000	0.000000 
744.000000	0.000000 
744.500000	0.000000 
745.000000	0.000000 
745.500000	0.000000 
746.000000	0.000000 
746.500000	0.000000 
747.000000	0.000000 
747.500000	0.000000 
748.000000	0.000000 
748.500000	0.000000 
749.000000	0.000000 
749.500000	0.000000 
750.000000	0.000000 

