CdS sonochem 90min ex335,,CdS sonochem 90min em410,,CdS sonochem 90min ex300,,CdS sonochem 90min em350,,CdS sonochem 90min ex295,,CdS sonochem 90min ex295 slow,,CdS sonochem 90min ex335 slow,,CdS sonochem 90min em410 slow,,
Wavelength (nm),Intensity (a.u.),Wavelength (nm),Intensity (a.u.),Wavelength (nm),Intensity (a.u.),Wavelength (nm),Intensity (a.u.),Wavelength (nm),Intensity (a.u.),Wavelength (nm),Intensity (a.u.),Wavelength (nm),Intensity (a.u.),Wavelength (nm),Intensity (a.u.),
344.9200134,0.3911724091,240,-0.8993091583,310,0.05017662048,240,-0.01745796204,305,-0.9729232788,305,-0.1050872803,344.9200134,-0.6075286865,240,0.04733085632,
345.8399963,0.3097324371,240.9299927,0.2114067078,311.0700073,3.235143661,240.9299927,0.1877670288,305.9299927,1.629005432,305.9299927,2.294837952,345.8399963,0.510717392,240.9299927,-0.63240242,
346.9200134,3.403877258,242.0299988,-0.5469017029,312,5.369674683,242.0299988,-0.5761814117,307.0299988,4.305059433,307.0299988,4.876079559,346.9200134,2.518075943,242.0299988,0.1013336182,
347.8399963,5.119947433,242.9600067,0.2045726776,313.0700073,8.150192261,242.9600067,-0.3102226257,307.9599915,6.351581573,307.9599915,6.947477341,347.8399963,3.87743187,242.9600067,-0.1874656677,
348.9200134,7.262960434,244.0599976,0.089012146,314,10.49185181,244.0599976,-0.1952400208,309.0599976,9.086845398,309.0599976,9.546272278,348.9200134,6.508289337,244.0599976,-0.5950546265,
349.8399963,9.254442215,245,0.7192211151,315.0700073,11.75998306,245,-0.3561553955,310,10.50788879,310,11.85833931,349.8399963,7.941436768,245,-0.03820228577,
350.9200134,9.558122635,245.9299927,0.547706604,316,14.0247879,245.9299927,-0.2378940582,311.0700073,14.38476372,311.0700073,14.38400078,350.9200134,9.860961914,245.9299927,0.2108001709,
351.8399963,13.06706429,247.0299988,0.5039253235,317.0700073,16.78983688,247.0299988,0.4916563034,312,16.59501457,312,16.94177818,351.8399963,12.60780334,247.0299988,0.5595703125,
352.9200134,13.85037804,247.9600067,0.7608280182,318,18.11035538,247.9600067,0.403011322,313.0700073,19.93706322,313.0700073,19.56891441,352.9200134,14.62689209,247.9600067,1.000411987,
353.8399963,17.09264183,249.0599976,1.971632004,319.0700073,21.3065834,249.0599976,0.8547105789,314,20.58429909,314,21.67401314,353.8399963,16.80309296,249.0599976,0.5038394928,
354.9200134,20.08962059,250,1.257379532,320,25.18202591,250,1.173487663,315.0700073,24.00245094,315.0700073,24.2851429,354.9200134,18.57450104,250,1.003782272,
355.8399963,21.03728676,250.9299927,1.387676239,320.9299927,28.97608948,250.9299927,1.437983513,316,26.92611504,316,26.9650898,355.8399963,21.11721802,250.9299927,0.9997024536,
356.9200134,24.05355263,252.0299988,1.647233963,322.0299988,34.92562866,252.0299988,1.468644142,317.0700073,30.02612495,317.0700073,29.9130497,356.9200134,23.50175858,252.0299988,1.395397186,
357.8399963,25.44647789,252.9600067,1.88634491,322.9599915,41.37018204,252.9600067,2.9189291,318,33.32546997,318,33.6765213,357.8399963,25.22996521,252.9600067,2.301410675,
358.9200134,26.74430275,254.0599976,3.194417953,324.0599976,49.55028915,254.0599976,3.103786469,319.0700073,36.50164032,319.0700073,37.90533447,358.9200134,28.64407349,254.0599976,2.572463989,
359.8399963,30.78569221,255,2.63397789,325,56.98281479,255,3.621789932,320,42.04325104,320,42.66487885,359.8399963,31.39807892,255,2.793634415,
360.9200134,34.251091,255.9299927,4.302047729,325.9299927,63.97054672,255.9299927,3.43283844,320.9299927,47.78011322,320.9299927,49.49996948,360.9200134,33.68564987,255.9299927,3.215711594,
361.8399963,36.07522583,257.0299988,3.457551956,327.0299988,73.24458313,257.0299988,5.036664009,322.0299988,57.47715759,322.0299988,58.13157654,361.8399963,36.94397736,257.0299988,3.530363083,
362.9200134,40.22006226,257.9599915,3.78975296,327.9599915,77.97518921,257.9599915,5.199557304,322.9599915,64.68505859,322.9599915,65.72576141,362.9200134,39.41610336,257.9599915,3.388219833,
363.8399963,45.02919769,259.0599976,4.357336044,329.0599976,87.41423035,259.0599976,4.952557564,324.0599976,74.11489105,324.0599976,74.56443787,363.8399963,43.57274628,259.0599976,3.87150383,
364.9200134,45.21066284,260,3.600233078,330,93.35148621,260,5.480084419,325,80.96602631,325,81.74149323,364.9200134,46.65440369,260,3.618238449,
365.8399963,50.43605804,260.9299927,4.522830963,331.0700073,95.7290802,260.9299927,5.661391258,325.9299927,88.0660553,325.9299927,88.66576385,365.8399963,49.5750885,260.9299927,3.60436058,
366.9200134,54.53303528,262.0299988,3.631164551,332,98.76855469,262.0299988,5.896042824,327.0299988,96.29169464,327.0299988,97.38492584,366.9200134,54.12168884,262.0299988,3.450250626,
367.8399963,56.7932663,262.9599915,4.597545624,333.0700073,103.3790283,262.9599915,5.990456581,327.9599915,101.7979279,327.9599915,102.5726242,367.8399963,58.19143677,262.9599915,3.743730545,
368.9200134,62.20715332,264.0599976,4.724866867,334,103.5251312,264.0599976,6.595618248,329.0599976,105.9297791,329.0599976,108.5132751,368.9200134,62.71123505,264.0599976,3.664728165,
369.8399963,67.5643158,265,5.242427826,335.0700073,106.1511383,265,6.785908699,330,109.8429718,330,111.3984985,369.8399963,67.62434387,265,4.006940842,
370.9200134,71.07987213,265.9299927,4.846803665,336,106.4747925,265.9299927,6.703921318,331.0700073,116.9388733,331.0700073,115.7471008,370.9200134,72.25336456,265.9299927,3.769985199,
371.8399963,74.17197418,267.0299988,5.048206329,337.0700073,109.7470093,267.0299988,7.594601631,332,118.1644592,332,118.8096466,371.8399963,74.97187042,267.0299988,3.834844589,
372.9200134,77.27767944,267.9599915,4.32302475,338,109.2454224,267.9599915,6.693778038,333.0700073,121.6530914,333.0700073,122.8311157,372.9200134,78.54047394,267.9599915,3.09866333,
373.8399963,79.40713501,269.0599976,2.925243378,339.0700073,112.6013184,269.0599976,6.918765068,334,123.6776123,334,124.5956421,373.8399963,79.78813171,269.0599976,2.74605751,
374.9200134,82.08388519,270,1.956411362,340,112.5280914,270,6.081585884,335.0700073,125.6863861,335.0700073,127.3338165,374.9200134,83.44277954,270,1.788496017,
375.8399963,86.3842392,271.0700073,1.086523056,341.0700073,117.9756012,271.0700073,5.480614662,336,128.6945343,336,128.2829437,375.8399963,84.06995392,271.0700073,1.078445435,
376.9200134,82.92044067,272,0.9429969788,342,117.2178345,272,5.120926857,337.0700073,128.6273651,337.0700073,130.5043945,376.9200134,86.41477966,272,0.4942703247,
377.8399963,90.07738495,273.0700073,0.2972354889,343.0700073,119.0409241,273.0700073,4.268876076,338,130.2471313,338,132.5015564,377.8399963,89.45027924,273.0700073,-0.534368515,
378.9200134,90.8988266,274,-0.7889518738,344,120.4945374,274,3.702084541,339.0700073,132.1621094,339.0700073,133.764679,378.9200134,92.41982269,274,-1.025987625,
379.8399963,93.48616028,275.0700073,-2.119211197,345.0700073,122.8193512,275.0700073,3.355008125,340,132.4802856,340,134.5424042,379.8399963,95.71282959,275.0700073,-2.360424042,
380.9200134,95.80692291,276,-2.706520081,346,125.2240601,276,3.107255936,341.0700073,137.7415466,341.0700073,137.1489868,380.9200134,97.8884201,276,-3.009279251,
381.8399963,101.514595,277.0700073,-3.229568481,347.0700073,126.1096954,277.0700073,3.972432137,342,137.9440155,342,137.7219696,381.8399963,100.1485214,277.0700073,-3.728342056,
382.9200134,101.151123,278,-3.65839386,348,126.4206085,278,6.365324974,343.0700073,139.4912262,343.0700073,139.2060242,382.9200134,103.9378052,278,-3.70042038,
383.8399963,103.2290268,279.0700073,-1.450181961,349.0700073,125.3599091,279.0700073,12.62538624,344,139.0875397,344,140.6557312,383.8399963,106.5842209,279.0700073,-2.399690628,
384.9200134,110.417923,280,0.884601593,350,127.2059021,280,21.15045929,345.0700073,139.2207947,345.0700073,141.5375824,384.9200134,109.3958054,280,0.08638763428,
385.8399963,110.2978516,280.9299927,2.833675385,351.0700073,124.050766,280.9299927,30.63796616,346,141.0182495,346,141.4032593,385.8399963,113.5006027,280.9299927,3.324747086,
386.9200134,110.2214203,282.0299988,9.638607025,352,125.9993591,282.0299988,48.38639832,347.0700073,143.0287323,347.0700073,141.4100952,386.9200134,115.4046555,282.0299988,9.61939621,
387.8399963,115.9344177,282.9599915,16.39536476,353.0700073,125.9452972,282.9599915,64.53601837,348,141.8085175,348,141.5407715,387.8399963,117.9379654,282.9599915,16.31314468,
388.9200134,117.8665924,284.0599976,23.8718853,354,123.9882507,284.0599976,82.06719971,349.0700073,140.1704865,349.0700073,140.9180298,388.9200134,120.6500168,284.0599976,24.81350327,
389.8399963,118.7416077,285,31.1367588,355.0700073,123.2935028,285,99.04403687,350,137.056488,350,140.2720642,389.8399963,122.4605789,285,31.44698715,
390.9200134,123.2553558,285.9299927,37.24532318,356,120.8640594,285.9299927,111.0620804,351.0700073,137.4042053,351.0700073,139.1751404,390.9200134,122.9999924,285.9299927,37.54948807,
391.8399963,122.9437561,287.0299988,43.58590698,357.0700073,120.4028015,287.0299988,124.0517426,352,136.7413483,352,136.8128815,391.8399963,126.4231339,287.0299988,44.89575577,
392.9200134,127.8109589,287.9599915,49.27793884,358,120.9784851,287.9599915,133.7401581,353.0700073,135.5654144,353.0700073,136.1428223,392.9200134,128.243103,287.9599915,49.79861069,
393.8399963,130.0115967,289.0599976,54.7172699,359.0700073,118.1235046,289.0599976,142.1358948,354,131.0202789,354,133.6595612,393.8399963,129.8640442,289.0599976,54.98740768,
394.9200134,130.3267517,290,58.46118164,360,120.2186432,290,145.5635071,355.0700073,130.6859894,355.0700073,131.2536316,394.9200134,132.1223145,290,58.70753098,
395.8399963,130.4920044,290.9299927,61.80996704,361.0700073,120.3417053,290.9299927,147.5775146,356,130.5596466,356,130.9052277,395.8399963,133.613678,290.9299927,62.51237106,
396.9200134,134.6808319,292.0299988,66.48158264,362,117.7905579,292.0299988,149.0039063,357.0700073,129.3625031,357.0700073,128.0966034,396.9200134,136.0782776,292.0299988,66.87028503,
397.8399963,135.9293823,292.9599915,69.72335815,363.0700073,115.7073212,292.9599915,149.282486,358,128.0982971,358,127.7150421,397.8399963,137.051239,292.9599915,69.87304688,
398.9200134,136.5561829,294.0599976,74.80059814,364,115.6792755,294.0599976,150.9003448,359.0700073,126.8348236,359.0700073,124.6547546,398.9200134,138.0257874,294.0599976,74.56256104,
399.8399963,134.7046051,295,78.07640839,365.0700073,113.6965332,295,146.9277649,360,124.3795319,360,123.7214661,399.8399963,138.8139648,295,78.20637512,
400.9200134,137.0252838,295.9299927,81.07899475,366,112.5986023,295.9299927,148.848877,361.0700073,122.0938721,361.0700073,122.0318604,400.9200134,140.8643188,295.9299927,81.73046875,
401.8399963,141.158783,297.0299988,85.34307861,367.0700073,113.8420715,297.0299988,146.6899567,362,121.5081024,362,121.2155151,401.8399963,140.7184753,297.0299988,85.08889771,
402.9200134,141.9607697,297.9599915,85.94843292,368,113.4289856,297.9599915,146.1872406,363.0700073,120.0242004,363.0700073,119.4374695,402.9200134,143.3696289,297.9599915,87.67071533,
403.8399963,142.6768494,299.0599976,89.85475922,369.0700073,109.9676361,299.0599976,146.1609039,364,117.3718719,364,118.3223267,403.8399963,142.7131653,299.0599976,89.75611877,
404.9200134,141.8751984,300,91.01338959,370,109.7281342,300,141.9149475,365.0700073,114.8975677,365.0700073,117.0534973,404.9200134,142.9613342,300,92.67063904,
405.8399963,143.2134705,301.0700073,94.27548218,371.0700073,109.0595856,301.0700073,140.8143158,366,114.1642303,366,115.7645264,405.8399963,144.170166,301.0700073,94.33197021,
406.9200134,143.9176178,302,94.33702087,372,106.2658234,302,135.8519287,367.0700073,112.6530457,367.0700073,113.625885,406.9200134,144.8046875,302,96.24969482,
407.8399963,144.9098206,303.0700073,99.52105713,373.0700073,104.481308,303.0700073,132.4680176,368,111.4618683,368,111.6256714,407.8399963,145.1188049,303.0700073,99.32324219,
408.9200134,146.2066345,304,100.0494995,374,104.9004974,304,128.6154327,369.0700073,108.5115967,369.0700073,110.4593048,408.9200134,146.1390076,304,100.4430389,
409.8399963,145.4632416,305.0700073,102.2354965,375.0700073,100.7084045,305.0700073,124.625473,370,109.5815735,370,108.0382233,409.8399963,146.62323,305.0700073,103.1458435,
410.8999939,145.6799927,306,105.6514816,376,100.858963,306,118.702713,371.0700073,107.0817566,371.0700073,106.4179916,410.8999939,146.3385925,306,104.7238464,
411.9599915,145.1978607,307.0700073,106.665802,377.0700073,99.08528137,307.0700073,112.0552063,372,103.1170959,372,105.5219574,411.9599915,145.686554,307.0700073,107.2001343,
412.8699951,144.5782623,308,109.0004654,378,99.7406311,308,109.5098648,373.0700073,102.9520569,373.0700073,103.6172333,412.8699951,147.131134,308,109.0037689,
413.9299927,143.5410004,309.0700073,111.6387711,379.0700073,97.8927002,309.0700073,106.5460815,374,103.6097336,374,102.3225479,413.9299927,145.5725708,309.0700073,111.2537231,
414.8399963,139.4655914,310,112.1513443,380,96.16581726,310,102.7710876,375.0700073,99.49671936,375.0700073,100.1187744,414.8399963,145.4560242,310,113.3440247,
415.8999939,144.1519775,311.0700073,114.408226,381.0700073,95.1893158,311.0700073,98.510849,376,96.75261688,376,98.29182434,415.8999939,144.2816162,311.0700073,115.2059784,
416.9599915,145.5851288,312,116.7713699,382,97.03845215,312,96.32267761,377.0700073,96.061203,377.0700073,96.42597961,416.9599915,144.3957825,312,116.8989716,
417.8699951,139.6976013,313.0700073,117.9655533,383.0700073,95.2644043,313.0700073,91.81708527,378,95.90023804,378,96.34037018,417.8699951,143.7601624,313.0700073,118.6449127,
418.9299927,140.8072357,314,117.9199295,384,94.54196167,314,89.58166504,379.0700073,95.28083801,379.0700073,94.08930969,418.9299927,142.5624084,314,119.9127655,
419.8399963,138.1902313,315.0700073,120.5636368,385.0700073,93.11633301,315.0700073,84.20932007,380,95.35961914,380,92.63785553,419.8399963,139.6513367,315.0700073,120.4909668,
420.9200134,137.9718323,316,119.7507401,386,94.63674927,316,83.40594482,381.0700073,92.4130249,381.0700073,92.17217255,420.9200134,139.0588684,316,123.6807251,
421.8399963,136.3685455,317.0700073,124.1550369,387.0700073,92.56611633,317.0700073,79.88309479,382,91.94564056,382,91.72054291,421.8399963,137.9389343,317.0700073,124.9455109,
422.9200134,133.4447784,318,126.3086929,388,91.73945618,318,73.0138855,383.0700073,91.29172516,383.0700073,91.20231628,422.9200134,137.2084656,318,125.5050659,
423.8399963,133.0471954,319.0700073,127.5639267,389.0700073,90.45051575,319.0700073,69.19887543,384,88.60101318,384,89.76161957,423.8399963,134.9195251,319.0700073,127.7593079,
424.9200134,130.0793915,320,127.8489609,390,89.86433411,320,64.38858032,385.0700073,88.87717438,385.0700073,89.59979248,424.9200134,131.980011,320,128.6233978,
425.8399963,130.5493164,320.9299927,132.9964294,391.0700073,92.40922546,320.9299927,60.37589645,386,89.23241425,386,88.26237488,425.8399963,130.4339294,320.9299927,130.5903168,
426.9200134,128.7029877,322.0299988,129.602417,392,92.18881226,322.0299988,56.30924606,387.0700073,87.83262634,387.0700073,87.35683441,426.9200134,128.2857971,322.0299988,133.1685181,
427.8399963,124.294281,322.9599915,132.7857056,393.0700073,91.16111755,322.9599915,55.17307663,388,85.88155365,388,86.51967621,427.8399963,124.7643661,322.9599915,135.6412659,
428.9200134,120.8889465,324.0599976,139.8036194,394,89.36598206,324.0599976,52.53585434,389.0700073,86.9727478,389.0700073,87.0190506,428.9200134,123.8001938,324.0599976,138.0601501,
429.8399963,119.3255005,325,140.7462158,395.0700073,88.80914307,325,50.50902557,390,84.41816711,390,85.61448669,429.8399963,122.9140701,325,139.5413513,
430.8999939,117.4416351,325.9299927,140.6639099,396,89.14587402,325.9299927,49.5151825,391.0700073,83.99642181,391.0700073,85.27544403,430.8999939,120.2632065,325.9299927,140.0918732,
431.9599915,113.5083008,327.0299988,141.4128876,397.0700073,87.49884033,327.0299988,47.64767075,392,85.35061646,392,84.30564117,431.9599915,118.4897537,327.0299988,142.4047546,
432.8699951,112.8733215,327.9599915,141.1391602,398,89.27650452,327.9599915,47.49503708,393.0700073,83.54922485,393.0700073,84.14428711,432.8699951,116.7116776,327.9599915,143.2190857,
433.9299927,113.7867737,329.0599976,143.5617218,399.0700073,86.12518311,329.0599976,44.3512764,394,82.69955444,394,83.7201004,433.9299927,113.4308395,329.0599976,144.2909241,
434.8399963,110.4360657,330,144.942688,400,88.50553894,330,41.20820236,395.0700073,83.75460052,395.0700073,82.99845123,434.8399963,111.3174515,330,145.6972198,
435.8999939,109.6938477,331.0700073,144.6516571,401.0700073,87.19363403,331.0700073,35.65662384,396,83.63047028,396,82.8894577,435.8999939,110.4776382,331.0700073,146.9959412,
436.9599915,105.1630402,332,147.0356445,402,87.46342468,332,32.47500992,397.0700073,81.8298111,397.0700073,82.78041077,436.9599915,107.7903671,332,148.9424133,
437.8699951,103.9559555,333.0700073,149.6115265,403.0700073,87.66111755,333.0700073,27.12481689,398,81.03046417,398,81.56340027,437.8699951,105.7899094,333.0700073,147.599411,
438.9299927,105.5105286,334,149.8766785,404,86.04978943,334,24.30905533,399.0700073,82.42556,399.0700073,81.61293793,438.9299927,103.5605774,334,149.3191071,
439.8399963,100.9102707,335.0700073,147.6191406,405.0700073,86.86087036,335.0700073,20.63001251,400,82.49526215,400,81.55041504,439.8399963,102.3952637,335.0700073,148.0528412,
440.8999939,98.85351563,336,150.3494568,406,86.05226135,336,16.73530579,401.0700073,79.47963715,401.0700073,81.7915802,440.8999939,99.63505554,336,149.2157898,
441.9599915,98.85695648,337.0700073,148.1985016,407.0700073,85.10163879,337.0700073,13.49036884,402,80.53703308,402,81.01009369,441.9599915,97.08779907,337.0700073,148.5901489,
442.8699951,95.71764374,338,147.7657471,408,86.53970337,338,11.89749241,403.0700073,79.30387878,403.0700073,80.63972473,442.8699951,96.26664734,338,148.1816406,
443.9299927,95.91305542,339.0700073,146.6828766,409.0700073,85.37124634,339.0700073,8.401217461,404,81.41094208,404,80.93096161,443.9299927,94.71417236,339.0700073,146.8668518,
444.8399963,92.55362701,340,142.891571,410,85.55453491,340,7.60721302,405.0700073,79.74079895,405.0700073,79.44013214,444.8399963,94.41891479,340,147.0938263,
445.8999939,90.65719604,341.0700073,145.6094666,411.0599976,85.88275146,,,406,80.56684113,406,79.6737442,445.8999939,91.2575531,341.0700073,146.7538757,
446.9599915,91.43509674,342,144.4243469,411.9599915,84.32170105,,,407.0700073,79.92524719,407.0700073,80.17350769,446.9599915,90.15895081,342,144.5745239,
447.8699951,89.31454468,343.0700073,143.1398315,413.0299988,84.86083984,,,408,79.08828735,408,79.55821991,447.8699951,88.71259308,343.0700073,142.9102478,
448.9299927,88.85466003,344,139.9033813,413.9299927,82.99749756,,,409.0700073,78.78504181,409.0700073,79.02282715,448.9299927,87.98819733,344,141.3823242,
449.8399963,84.05231476,345.0700073,135.7042084,415,81.9410553,,,410,79.36525726,410,78.52443695,449.8399963,85.96172333,345.0700073,139.304657,
450.8999939,83.93061829,346,135.0445404,416.0599976,79.93385315,,,411.0599976,77.88243103,411.0599976,78.4210968,450.8999939,85.40467072,346,138.446701,
451.9599915,80.54273224,347.0700073,135.3512573,416.9599915,81.22662354,,,411.9599915,78.23992157,411.9599915,77.90550995,451.9599915,82.28546906,347.0700073,134.1229095,
452.8699951,81.55599976,348,132.8586273,418.0299988,81.10823059,,,413.0299988,77.77175903,413.0299988,77.08338928,452.8699951,81.6313858,348,133.6504059,
453.9299927,79.94211578,349.0700073,129.9958801,418.9299927,78.03474426,,,413.9299927,76.03377533,413.9299927,77.34877777,453.9299927,79.53884125,349.0700073,130.2824097,
454.8399963,78.00971222,350,126.434639,420,76.63587952,,,415,77.35958862,415,76.56817627,454.8399963,78.94841766,350,126.9929504,
455.8999939,77.62792206,351.0700073,120.9477921,421.0700073,75.35913086,,,416.0599976,74.11615753,416.0599976,75.76733398,455.8999939,77.90335846,351.0700073,123.2895355,
456.9599915,74.67098999,352,120.2409286,422,75.35253906,,,416.9599915,76.13169098,416.9599915,75.79310608,456.9599915,76.06545258,352,120.4398041,
457.8699951,74.31996155,353.0700073,118.2933426,423.0700073,74.62948608,,,418.0299988,74.40401459,418.0299988,74.50300598,457.8699951,75.03227234,353.0700073,116.661438,
458.9299927,72.99851227,354,112.4253159,424,74.92811584,,,418.9299927,73.50395966,418.9299927,74.24329376,458.9299927,72.9127655,354,113.8500671,
459.8399963,72.99533081,355.0700073,108.3084488,425.0700073,72.73065186,,,420,72.59288788,420,73.03052521,459.8399963,71.65827179,355.0700073,109.3470306,
460.8999939,70.55116272,356,107.8418503,426,71.54618835,,,421.0700073,73.03427887,421.0700073,72.57105255,460.8999939,70.83544922,356,107.2450867,
461.9599915,69.36392975,357.0700073,104.0058365,427.0700073,69.86273193,,,422,70.56233978,422,70.47966003,461.9599915,67.90015411,357.0700073,104.2242432,
462.8699951,67.55821991,358,97.78217316,428,65.36935425,,,423.0700073,69.91464233,423.0700073,70.44670105,462.8699951,67.84552002,358,101.1152344,
463.9299927,66.66177368,359.0700073,97.70146942,429.0700073,66.91694641,,,424,69.00300598,424,68.32901764,463.9299927,65.55371857,359.0700073,98.69088745,
464.8399963,65.31056213,360,95.07125092,430,66.022995,,,425.0700073,67.37734985,425.0700073,68.3033371,464.8399963,64.88824463,360,95.96516418,
465.8999939,63.5761261,361.0700073,91.64342499,431.0599976,65.0098877,,,426,66.3787384,426,67.17182922,465.8999939,63.48729706,361.0700073,92.81193542,
466.9599915,61.91177368,362,90.43470001,431.9599915,61.98222733,,,427.0700073,65.55844116,427.0700073,66.3077774,466.9599915,61.58314514,362,89.79598999,
467.8699951,59.54350281,363.0700073,85.82687378,433.0299988,61.48575974,,,428,64.46307373,428,64.92863464,467.8699951,60.85795593,363.0700073,87.565979,
468.9299927,58.76960754,364,86.35025787,433.9299927,60.14571762,,,429.0700073,63.84655762,429.0700073,63.57076263,468.9299927,58.52871704,364,85.74888611,
469.8399963,58.22447205,365.0700073,83.54142761,435,56.7179985,,,430,62.20685577,430,62.43851471,469.8399963,58.09298706,365.0700073,82.27960205,
470.8999939,56.33960724,366,79.58772278,436.0599976,57.76242447,,,431.0599976,60.6702652,431.0599976,61.68435669,470.8999939,56.55414581,366,78.43824768,
471.9599915,55.73223114,367.0700073,73.6035614,436.9599915,56.99123764,,,431.9599915,58.95021057,431.9599915,60.26812744,471.9599915,55.52603912,367.0700073,73.79426575,
472.8699951,53.84113312,368,69.44944763,438.0299988,56.22890091,,,433.0299988,58.43721771,433.0299988,59.54876709,472.8699951,53.35713959,368,69.49514771,
473.9299927,53.62968445,369.0700073,64.44852448,438.9299927,55.79848099,,,433.9299927,57.27083588,433.9299927,57.77513885,473.9299927,53.8216095,369.0700073,64.55291748,
474.8399963,49.87225342,370,62.16243744,440,54.17278671,,,435,55.87660217,435,57.23229218,474.8399963,51.72197723,370,61.86436844,
475.8999939,49.36993408,371.0700073,56.97972107,441.0599976,51.67481613,,,436.0599976,53.99710083,436.0599976,56.49437714,475.8999939,49.67684937,371.0700073,57.66501999,
476.9599915,47.36444092,372,55.14727783,441.9599915,52.68677902,,,436.9599915,54.33442688,436.9599915,55.71968842,476.9599915,48.63728333,372,54.59605789,
477.8699951,47.02745056,373.0700073,51.3789444,443.0299988,50.63606644,,,438.0299988,53.21063995,438.0299988,54.98454285,477.8699951,47.21986389,373.0700073,51.23657608,
478.9299927,47.46385193,374,47.19747162,443.9299927,51.25959396,,,438.9299927,52.48004913,438.9299927,53.45927429,478.9299927,46.22457123,374,48.24179459,
479.8399963,43.69363403,375.0700073,46.20981598,445,49.33424759,,,440,51.79221344,440,53.42869568,479.8399963,44.3782196,375.0700073,45.44513321,
480.8999939,43.56246948,376,43.94664001,446.0599976,48.69587326,,,441.0599976,51.47483826,441.0599976,52.45269775,480.8999939,43.21276855,376,43.51320648,
481.9599915,41.93536377,377.0700073,40.82875061,446.9599915,47.9933815,,,441.9599915,49.80607605,441.9599915,51.90957642,481.9599915,42.89707184,377.0700073,40.70188904,
482.8699951,41.27789307,378,39.40290833,448.0299988,46.60732651,,,443.0299988,49.80183411,443.0299988,50.64878845,482.8699951,41.9375,378,39.30365372,
483.9299927,39.34204102,379.0700073,36.38372803,448.9299927,46.18809891,,,443.9299927,50.61357117,443.9299927,50.21723175,483.9299927,39.83357239,379.0700073,36.64887619,
484.8399963,38.78308868,380,33.35919952,450,45.93355179,,,445,47.25034332,445,49.83280182,484.8399963,38.15955734,380,34.35558319,
485.8999939,39.639328,381.0700073,31.88659859,451.0599976,43.53713608,,,446.0599976,49.08001709,446.0599976,48.96721649,485.8999939,37.77469635,381.0700073,31.65333557,
486.9599915,38.02787781,382,30.57670784,451.9599915,44.19442368,,,446.9599915,45.46819305,446.9599915,48.18544006,486.9599915,36.44707489,382,29.75301743,
487.8699951,35.67396545,383.0700073,27.51858711,453.0299988,42.07987595,,,448.0299988,45.75266266,448.0299988,46.86339569,487.8699951,35.45439911,383.0700073,27.02166748,
488.9299927,34.08187103,384,25.72008705,453.9299927,42.84061813,,,448.9299927,46.77946472,448.9299927,46.38388062,488.9299927,35.09222794,384,25.29698563,
489.8399963,33.13294983,385.0700073,23.14932823,455,42.18535233,,,450,45.51786041,450,46.57672882,489.8399963,33.47134399,385.0700073,22.92679214,
490.8900146,32.67720032,386,20.56123924,456.0599976,42.49030685,,,451.0599976,43.46163177,451.0599976,45.60507965,490.8900146,32.38184738,386,21.20111465,
491.9400024,31.69893074,387.0700073,19.27879524,456.9599915,40.57249832,,,451.9599915,44.16498566,451.9599915,44.44322968,491.9400024,30.58126068,387.0700073,19.25250244,
492.980011,30.12384987,388,17.08341789,458.0299988,40.14774704,,,453.0299988,43.0934906,453.0299988,44.32554626,492.980011,30.56352615,388,16.96508026,
493.8800049,29.66573906,389.0700073,15.76705742,458.9299927,39.25868607,,,453.9299927,42.79148102,453.9299927,43.69356537,493.8800049,30.06235504,389.0700073,15.04263687,
494.9200134,28.92787361,390,13.51190758,460,40.0837822,,,455,41.96156311,455,43.396698,494.9200134,28.96195984,390,13.67892456,
495.9700012,27.79979897,391.0599976,10.99222755,461.0599976,37.39088821,,,456.0599976,41.87214661,456.0599976,42.48387146,495.9700012,27.29743576,391.0599976,11.51769257,
496.8599854,27.23109627,391.9599915,10.49544334,461.9599915,37.05636215,,,456.9599915,41.9859848,456.9599915,41.90781403,496.8599854,27.00064087,391.9599915,10.37704086,
497.9100037,25.81023979,393.0299988,8.534332275,463.0299988,36.27820206,,,458.0299988,40.53143311,458.0299988,41.24550629,497.9100037,25.60123062,393.0299988,8.906024933,
498.9500122,24.73990822,393.9299927,6.505910873,463.9299927,35.99894333,,,458.9299927,39.07998657,458.9299927,40.43935394,498.9500122,25.11671066,393.9299927,7.414718628,
499.8500061,24.93719673,395,5.129135132,465,35.77767563,,,460,39.20980072,460,39.7412262,499.8500061,23.84027863,395,5.500068665,
500.8900146,22.61922264,396.0599976,4.033256531,466.0599976,35.34020996,,,461.0599976,39.77711487,461.0599976,39.02310181,500.8900146,23.225914,396.0599976,4.157152176,
501.9400024,21.87962151,396.9599915,2.741044998,466.9599915,34.41682434,,,461.9599915,37.10392761,461.9599915,38.09078217,501.9400024,21.66320801,396.9599915,2.75878334,
502.980011,20.68675423,398.0299988,1.394144058,468.0299988,33.21197891,,,463.0299988,36.80688477,463.0299988,37.95517731,502.980011,20.98491287,398.0299988,1.454376221,
503.8800049,20.50782204,398.9299927,-0.5745487213,468.9299927,33.09012604,,,463.9299927,37.08281708,463.9299927,37.78132629,503.8800049,20.27796555,398.9299927,0.2458343506,
504.9200134,21.8772831,400,-0.980884552,470,32.35809326,,,465,37.17333221,465,36.97879791,504.9200134,19.45352936,400,-0.7419662476,
505.9700012,19.34887505,,,471.0599976,30.57549667,,,466.0599976,35.5220108,466.0599976,36.0533371,505.9700012,18.81965637,,,
506.8599854,18.88942146,,,471.9599915,30.34856033,,,466.9599915,36.25198364,466.9599915,35.91907501,506.8599854,17.70215988,,,
507.9100037,17.39493752,,,473.0299988,29.66308212,,,468.0299988,33.77331543,468.0299988,35.08753204,507.9100037,17.36159515,,,
508.9500122,16.39027977,,,473.9299927,28.5825386,,,468.9299927,34.6350174,468.9299927,34.38996887,508.9500122,16.70135117,,,
509.8500061,15.08613396,,,475,27.67097855,,,470,33.40410614,470,33.59420013,509.8500061,15.69227982,,,
510.8999939,15.15822029,,,476.0599976,27.40538406,,,471.0599976,31.45152092,471.0599976,32.73789978,510.8999939,14.93203354,,,
511.9599915,14.29337883,,,476.9599915,26.09327698,,,471.9599915,31.633955,471.9599915,32.40375519,511.9599915,14.22153091,,,
512.8699951,14.56202888,,,478.0299988,25.94797134,,,473.0299988,32.38291931,473.0299988,31.68667793,512.8699951,13.08198929,,,
513.9299927,12.97195625,,,478.9299927,23.95477295,,,473.9299927,30.27158546,473.9299927,31.41771889,513.9299927,13.14764786,,,
514.8400269,12.5931797,,,480,24.13236618,,,475,29.11081505,475,30.8098278,514.8400269,12.62474823,,,
515.9000244,11.56641579,,,481.0599976,24.38298035,,,476.0599976,28.8289814,476.0599976,29.97436333,515.9000244,11.60704422,,,
516.960022,10.71479988,,,481.9599915,23.42237091,,,476.9599915,28.70114708,476.9599915,29.69609261,516.960022,11.30224991,,,
517.8699951,10.88591576,,,483.0299988,21.84669495,,,478.0299988,28.17381096,478.0299988,28.82029915,517.8699951,10.55868912,,,
518.9299927,8.732492447,,,483.9299927,21.25774384,,,478.9299927,26.72683525,478.9299927,28.24185753,518.9299927,9.890857697,,,
519.8400269,9.733884811,,,485,21.33553314,,,480,26.71239662,480,27.36807823,519.8400269,8.797073364,,,
520.8900146,8.14106369,,,486.0599976,19.58705902,,,481.0599976,26.21688271,481.0599976,26.62430382,520.8900146,8.666122437,,,
521.9400024,8.249652863,,,486.9599915,20.01423264,,,481.9599915,25.25259972,481.9599915,26.34608269,521.9400024,7.52703476,,,
522.9799805,6.6472435,,,488.0299988,20.07002258,,,483.0299988,25.06081581,483.0299988,25.61689949,522.9799805,7.496162415,,,
523.8800049,6.063741684,,,488.9299927,19.02018356,,,483.9299927,24.80045128,483.9299927,25.0830822,523.8800049,6.872953415,,,
524.9199829,5.124568939,,,490,16.74241638,,,485,24.8676548,485,24.24888039,524.9199829,5.908348083,,,
525.9699707,6.772396088,,,491.0400085,16.63272858,,,486.0599976,24.0448246,486.0599976,23.46266747,525.9699707,5.18479538,,,
526.8599854,4.045721054,,,491.9400024,16.17177582,,,486.9599915,22.1400547,486.9599915,22.88059807,526.8599854,4.144317627,,,
527.9099731,3.72133255,,,492.980011,15.5988121,,,488.0299988,22.90214348,488.0299988,22.5555172,527.9099731,4.576332092,,,
528.9500122,3.380216599,,,494.019989,14.96003342,,,488.9299927,21.7922802,488.9299927,22.23328209,528.9500122,3.585309982,,,
529.8499756,2.704973221,,,495.0700073,14.18777466,,,490,20.35444832,490,21.44175148,529.8499756,3.407186508,,,
530.8900146,3.755781174,,,495.9700012,14.41095734,,,491.0400085,19.73512077,491.0400085,21.00589561,530.8900146,3.059724808,,,
531.9400024,1.678218842,,,497.0100098,13.05073166,,,491.9400024,20.02739143,491.9400024,20.12998009,531.9400024,1.97262764,,,
532.9799805,1.886175156,,,498.0499878,12.04918671,,,492.980011,19.42370415,492.980011,19.15969658,532.9799805,1.455810547,,,
533.8800049,1.406036377,,,498.9500122,10.82738113,,,494.019989,18.48190117,494.019989,19.58776665,533.8800049,1.16999054,,,
534.9199829,1.114896774,,,500,10.6141777,,,495.0700073,17.85847282,495.0700073,18.74157524,534.9199829,0.6688461304,,,
535.9699707,0.2280712128,,,501.0400085,9.885101318,,,495.9700012,17.19825554,495.9700012,18.08803749,535.9699707,0.1169300079,,,
536.8599854,0.03921699524,,,501.9400024,9.413684845,,,497.0100098,16.15494728,497.0100098,17.6860981,536.8599854,-0.1214103699,,,
537.9099731,-0.06129646301,,,502.980011,9.894706726,,,498.0499878,15.99651909,498.0499878,17.04659081,537.9099731,-0.2409610748,,,
538.9500122,-1.594549179,,,504.019989,7.526847839,,,498.9500122,15.3002758,498.9500122,16.31953621,538.9500122,-0.6660785675,,,
539.8499756,-1.180459976,,,505.0700073,6.453384399,,,500,14.95180321,500,15.9265728,539.8499756,-1.431694031,,,
540.8800049,-0.3582553864,,,505.9700012,7.439811707,,,501.0400085,15.05120659,501.0400085,15.21149254,540.8800049,-2.439685822,,,
541.9099731,-1.621191025,,,507.0100098,5.979373932,,,501.9400024,14.48899651,501.9400024,14.58959389,541.9099731,-2.513063431,,,
542.9400024,-2.57244873,,,508.0499878,6.691558838,,,502.980011,13.95879555,502.980011,14.30610085,542.9400024,-3.087320328,,,
543.9699707,-2.968050003,,,508.9500122,6.355232239,,,504.019989,13.83160973,504.019989,13.54514122,543.9699707,-2.764751434,,,
544.8499756,-2.70010376,,,510,4.979782104,,,505.0700073,12.43880653,505.0700073,13.08161736,544.8499756,-3.539447784,,,
545.8800049,-3.955871582,,,511.0599976,4.324028015,,,505.9700012,13.61413002,505.9700012,12.3897686,545.8800049,-4.095281601,,,
546.9099731,-3.852851868,,,511.9599915,4.474117279,,,507.0100098,11.0845108,507.0100098,12.08554649,546.9099731,-4.083364487,,,
547.9400024,-5.004940033,,,513.0300293,3.647254944,,,508.0499878,11.2209568,508.0499878,11.51163483,547.9400024,-4.74146843,,,
548.9699707,-4.87361145,,,513.9299927,3.105567932,,,508.9500122,11.58668709,508.9500122,11.31662369,548.9699707,-5.093708038,,,
549.8499756,-5.034898758,,,515,2.048210144,,,510,9.836902618,510,10.23159981,549.8499756,-5.089761734,,,
550.8900146,-6.317020416,,,516.0599976,1.966398239,,,511.0599976,9.649665833,511.0599976,9.814210892,550.8900146,-5.876754761,,,
551.9400024,-6.207435608,,,516.960022,1.244264603,,,511.9599915,8.408226013,511.9599915,10.10272789,551.9400024,-6.033632278,,,
552.9799805,-6.711103439,,,518.0300293,1.281778336,,,513.0300293,9.458108902,513.0300293,9.14947319,552.9799805,-6.809244156,,,
553.8800049,-6.859035492,,,518.9299927,1.651727676,,,513.9299927,7.583086014,513.9299927,8.699071884,553.8800049,-6.935285568,,,
554.9199829,-7.501612663,,,520,0.3318862915,,,515,7.047996521,515,8.058460236,554.9199829,-7.480541229,,,
555.9699707,-7.891798019,,,521.039978,-1.559474945,,,516.0599976,7.339019775,516.0599976,7.862373352,555.9699707,-7.529520035,,,
556.8599854,-8.685745239,,,521.9400024,-0.2141056061,,,516.960022,6.755729675,516.960022,7.203702927,556.8599854,-7.857990265,,,
557.9099731,-8.495034218,,,522.9799805,-0.5932998657,,,518.0300293,6.694761276,518.0300293,6.694009781,557.9099731,-8.535563469,,,
558.9500122,-8.541134834,,,524.0200195,-1.2697258,,,518.9299927,6.921579361,518.9299927,6.61324501,558.9500122,-8.674207687,,,
559.8499756,-8.283520699,,,525.0700073,-1.267221451,,,520,5.932355881,520,6.237371445,559.8499756,-8.769314766,,,
560.8900146,-7.966610909,,,525.9699707,-2.392427444,,,521.039978,5.359430313,521.039978,5.814668655,560.8900146,-9.256708145,,,
561.9400024,-9.853914261,,,527.0100098,-2.610912323,,,521.9400024,4.314785004,521.9400024,5.021722794,561.9400024,-9.54425621,,,
562.9799805,-9.713330269,,,528.0499878,-3.960090637,,,522.9799805,4.567443848,522.9799805,4.577381134,562.9799805,-9.816890717,,,
563.8800049,-9.628516197,,,528.9500122,-3.486907959,,,524.0200195,3.675439835,524.0200195,4.476127625,563.8800049,-10.11206627,,,
564.9199829,-10.91541672,,,530,-5.197618484,,,525.0700073,3.077726364,525.0700073,3.904035568,564.9199829,-10.04846573,,,
565.9699707,-9.503171921,,,531.039978,-5.424514771,,,525.9699707,3.281383514,525.9699707,3.548419952,565.9699707,-10.63783741,,,
566.8599854,-10.8407135,,,531.9400024,-5.279060364,,,527.0100098,2.710161209,527.0100098,3.241142273,566.8599854,-10.78546524,,,
567.9099731,-10.50271702,,,532.9799805,-5.934576035,,,528.0499878,2.706285477,528.0499878,2.541294098,567.9099731,-10.9407711,,,
568.9500122,-10.91915417,,,534.0200195,-6.657491684,,,528.9500122,2.916118622,528.9500122,2.315681458,568.9500122,-11.12492466,,,
569.8499756,-10.2857523,,,535.0700073,-6.941102982,,,530,1.696416855,530,2.103092194,569.8499756,-11.5365448,,,
570.8800049,-11.19253826,,,535.9699707,-6.965204239,,,531.039978,1.091083527,531.039978,1.476732254,570.8800049,-11.85314846,,,
571.9099731,-10.96107674,,,537.0100098,-6.364210129,,,531.9400024,0.6558837891,531.9400024,0.9249305725,571.9099731,-12.07349205,,,
572.9400024,-12.00663662,,,538.0499878,-7.808023453,,,532.9799805,0.6524600983,532.9799805,0.7587223053,572.9400024,-11.82818413,,,
573.9699707,-11.95079517,,,538.9500122,-7.901836395,,,534.0200195,0.2867488861,534.0200195,0.5304050446,573.9699707,-12.85816193,,,
574.8499756,-11.55196571,,,540,-8.622062683,,,535.0700073,-0.3035125732,535.0700073,0.1121082306,574.8499756,-12.49440002,,,
575.8800049,-12.52461052,,,541.0200195,-8.414983749,,,535.9699707,-0.6574172974,535.9699707,-0.2956523895,575.8800049,-12.95527267,,,
576.9099731,-12.20800209,,,542.0499878,-9.504323959,,,537.0100098,-0.9507141113,537.0100098,-0.3852920532,576.9099731,-12.88319397,,,
577.9400024,-13.34219837,,,542.9400024,-8.816633224,,,538.0499878,-1.123342514,538.0499878,-0.5877304077,577.9400024,-13.36496544,,,
578.9699707,-12.77114964,,,543.9699707,-8.844449997,,,538.9500122,-1.535177231,538.9500122,-1.050487518,578.9699707,-13.24550152,,,
579.8499756,-12.83852291,,,545,-10.5416317,,,540,-1.86611557,540,-1.57600975,579.8499756,-13.27023792,,,
580.8800049,-13.82335758,,,546.0200195,-10.35981178,,,541.0200195,-2.335411072,541.0200195,-1.929412842,580.8800049,-13.7050457,,,
581.9099731,-13.99293709,,,547.0499878,-10.33655548,,,542.0499878,-2.300420761,542.0499878,-2.314647675,581.9099731,-13.81596565,,,
582.9400024,-13.26215172,,,547.9400024,-10.68819618,,,542.9400024,-2.562070847,542.9400024,-2.332801819,582.9400024,-13.94139194,,,
583.9699707,-13.86502075,,,548.9699707,-11.41366768,,,543.9699707,-2.994596481,543.9699707,-3.003582001,583.9699707,-14.27013493,,,
584.8499756,-14.89955902,,,550,-11.47605705,,,545,-3.686447144,545,-3.26288414,584.8499756,-14.88637447,,,
585.8800049,-14.28095913,,,551.039978,-11.9277935,,,546.0200195,-3.34913063,546.0200195,-3.554782867,585.8800049,-14.6134243,,,
586.9099731,-14.6466856,,,551.9400024,-12.58509827,,,547.0499878,-4.163146973,547.0499878,-3.718177795,586.9099731,-14.99000835,,,
587.9400024,-15.5308876,,,552.9799805,-13.04383087,,,547.9400024,-4.668419838,547.9400024,-4.15458107,587.9400024,-14.89801407,,,
588.9699707,-14.49833679,,,554.0200195,-12.71579456,,,548.9699707,-4.939193726,548.9699707,-4.338459969,588.9699707,-15.6211853,,,
589.8499756,-14.85980034,,,555.0700073,-13.23195171,,,550,-4.63988781,550,-4.55642128,589.8499756,-15.44569874,,,
590.8800049,-15.35747147,,,555.9699707,-13.5299654,,,,,,,590.8800049,-15.55579185,,,
591.9099731,-15.69495773,,,557.0100098,-13.36300755,,,,,,,591.9099731,-15.58187771,,,
592.9400024,-16.14937592,,,558.0499878,-13.79530811,,,,,,,592.9400024,-15.87061787,,,
593.9699707,-15.55924034,,,558.9500122,-14.43836212,,,,,,,593.9699707,-15.83669472,,,
594.8499756,-15.723423,,,560,-13.97723484,,,,,,,594.8499756,-15.84080887,,,
595.8800049,-16.50855255,,,561.039978,-14.53817463,,,,,,,595.8800049,-16.24074554,,,
596.9099731,-16.27231598,,,561.9400024,-15.05699158,,,,,,,596.9099731,-16.34477043,,,
597.9400024,-16.4961338,,,562.9799805,-14.78042507,,,,,,,597.9400024,-16.48314285,,,
598.9699707,-16.58552551,,,564.0200195,-14.28380585,,,,,,,598.9699707,-16.75153732,,,
599.8499756,-16.66189003,,,565.0700073,-15.75647545,,,,,,,599.8499756,-17.09036636,,,
600.8800049,-16.52665901,,,565.9699707,-16.01308823,,,,,,,600.8800049,-17.00320435,,,
,,,,567.0100098,-16.37099648,,,,,,,,,,,
,,,,568.0499878,-15.8530674,,,,,,,,,,,
,,,,568.9500122,-16.78997803,,,,,,,,,,,
,,,,570,-17.03767204,,,,,,,,,,,
,,,,571.0200195,-17.03757668,,,,,,,,,,,
,,,,572.0499878,-17.52486038,,,,,,,,,,,
,,,,572.9400024,-17.58914948,,,,,,,,,,,
,,,,573.9699707,-17.46060944,,,,,,,,,,,
,,,,575,-16.92708206,,,,,,,,,,,
,,,,576.0200195,-18.48911858,,,,,,,,,,,
,,,,577.0499878,-18.20908356,,,,,,,,,,,
,,,,577.9400024,-18.34041214,,,,,,,,,,,
,,,,578.9699707,-18.38718796,,,,,,,,,,,
,,,,580,-19.16253471,,,,,,,,,,,
,,,,581.0200195,-19.13677597,,,,,,,,,,,
,,,,582.0499878,-18.82554626,,,,,,,,,,,
,,,,582.9400024,-18.83472824,,,,,,,,,,,
,,,,583.9699707,-18.96032715,,,,,,,,,,,
,,,,585,-19.3428154,,,,,,,,,,,
,,,,586.0200195,-19.44080734,,,,,,,,,,,
,,,,587.0499878,-19.13241577,,,,,,,,,,,
,,,,587.9400024,-18.2732048,,,,,,,,,,,
,,,,588.9699707,-15.89071846,,,,,,,,,,,
,,,,590,-12.10997581,,,,,,,,,,,
,,,,591.0200195,-3.50154686,,,,,,,,,,,
,,,,592.0499878,11.10345459,,,,,,,,,,,
,,,,592.9400024,27.07197571,,,,,,,,,,,
,,,,593.9699707,45.86068344,,,,,,,,,,,
,,,,595,63.00835037,,,,,,,,,,,
,,,,596.0200195,78.46064758,,,,,,,,,,,
,,,,597.0499878,91.91007996,,,,,,,,,,,
,,,,597.9400024,96.91479492,,,,,,,,,,,
,,,,598.9699707,94.83854675,,,,,,,,,,,
,,,,600,89.94970703,,,,,,,,,,,

CdS sonochem 90min ex335,
CdS sonochem 90min ex335
Collection Time: 8/19/2022 12:35:00 PM
Operator Name  :
Scan Software Version: 1.1(132)
Parameter List :
Instrument                        Cary Eclipse
Instrument Serial Number          E08013467
Data mode                         Fluorescence
Scan mode                         Emission
X Mode                            Wavelength (nm)
Start (nm)                        345.00
Stop (nm)                         600.00
Ex. Wavelength (nm)               335.00
Ex. Slit (nm)                     5
Em. Slit (nm)                     5
Scan rate (nm/min)                600.00
Data interval (nm)                1.0000
Averaging Time (s)                0.1000
Excitation filter                 Auto
Emission filter                   Open
PMT voltage (V)                   Medium
Corrected spectra                 OFF
Method Log     :
Method Name    : Default
Date/Time stamp: 8/19/2022 12:23:28 PM
Method Modifications:
Overlayed Graphs Changed: 8/19/2022 12:24:53 PM, Old:OFF, New:ON
Y max Changed: 8/19/2022 12:24:53 PM, Old:  1000.0000, New:   300.0000
Excitation Wavelength Changed: 8/19/2022 12:27:20 PM, Old: 350.00, New: 300.00
Emission Wavelength Changed: 8/19/2022 12:27:20 PM, Old: 400.00, New: 310.00
Stop Wavelength Changed: 8/19/2022 12:27:20 PM, Old: 600.00, New: 500.00
Zero Mode Changed: 8/19/2022 12:27:22 PM, Old:OFF, New:Reading
Zero Mode Changed: 8/19/2022 12:27:22 PM, Old:Reading, New:ON
Scan mode: Changed: 8/19/2022 12:28:28 PM, Old:Emission, New:Excitation
Excitation Wavelength Changed: 8/19/2022 12:28:28 PM, Old: 300.00, New: 240.00
Emission Wavelength Changed: 8/19/2022 12:28:28 PM, Old: 310.00, New: 400.00
Stop Wavelength Changed: 8/19/2022 12:28:28 PM, Old: 500.00, New: 390.00
Zero Mode Changed: 8/19/2022 12:28:31 PM, Old:ON, New:Reading
Zero Mode Changed: 8/19/2022 12:28:31 PM, Old:Reading, New:ON
Scan mode: Changed: 8/19/2022 12:29:17 PM, Old:Excitation, New:Emission
Excitation Wavelength Changed: 8/19/2022 12:29:17 PM, Old: 240.00, New: 330.00
Emission Wavelength Changed: 8/19/2022 12:29:17 PM, Old: 400.00, New: 340.00
Stop Wavelength Changed: 8/19/2022 12:29:17 PM, Old: 390.00, New: 500.00
Zero Mode Changed: 8/19/2022 12:29:19 PM, Old:ON, New:Reading
Zero Mode Changed: 8/19/2022 12:29:19 PM, Old:Reading, New:ON
Scan mode: Changed: 8/19/2022 12:30:02 PM, Old:Emission, New:Excitation
Excitation Wavelength Changed: 8/19/2022 12:30:02 PM, Old: 330.00, New: 240.00
Emission Wavelength Changed: 8/19/2022 12:30:02 PM, Old: 340.00, New: 410.00
Stop Wavelength Changed: 8/19/2022 12:30:02 PM, Old: 500.00, New: 400.00
Zero Mode Changed: 8/19/2022 12:30:08 PM, Old:ON, New:Reading
Zero Mode Changed: 8/19/2022 12:30:08 PM, Old:Reading, New:ON
Scan mode: Changed: 8/19/2022 12:30:53 PM, Old:Excitation, New:Emission
Excitation Wavelength Changed: 8/19/2022 12:30:53 PM, Old: 240.00, New: 335.00
Emission Wavelength Changed: 8/19/2022 12:30:53 PM, Old: 410.00, New: 345.00
Stop Wavelength Changed: 8/19/2022 12:30:53 PM, Old: 400.00, New: 600.00
Zero Mode Changed: 8/19/2022 12:30:55 PM, Old:ON, New:Reading
Zero Mode Changed: 8/19/2022 12:30:55 PM, Old:Reading, New:ON
Zero Mode Changed: 8/19/2022 12:34:51 PM, Old:ON, New:Reading
Zero Mode Changed: 8/19/2022 12:34:51 PM, Old:Reading, New:ON
End Method Modifications

CdS sonochem 90min em410,
CdS sonochem 90min em410
Collection Time: 8/19/2022 12:36:01 PM
Operator Name  :
Scan Software Version: 1.1(132)
Parameter List :
Instrument                        Cary Eclipse
Instrument Serial Number          E08013467
Data mode                         Fluorescence
Scan mode                         Excitation
X Mode                            Wavelength (nm)
Start (nm)                        240.00
Stop (nm)                         400.00
Em. Wavelength (nm)               410.00
Ex. Slit (nm)                     5
Em. Slit (nm)                     5
Scan rate (nm/min)                600.00
Data interval (nm)                1.0000
Averaging Time (s)                0.1000
Excitation filter                 Auto
Emission filter                   Open
PMT voltage (V)                   Medium
Corrected spectra                 OFF
Method Log     :
Method Name    : Default
Date/Time stamp: 8/19/2022 12:23:28 PM
Method Modifications:
Overlayed Graphs Changed: 8/19/2022 12:24:53 PM, Old:OFF, New:ON
Y max Changed: 8/19/2022 12:24:53 PM, Old:  1000.0000, New:   300.0000
Excitation Wavelength Changed: 8/19/2022 12:27:20 PM, Old: 350.00, New: 300.00
Emission Wavelength Changed: 8/19/2022 12:27:20 PM, Old: 400.00, New: 310.00
Stop Wavelength Changed: 8/19/2022 12:27:20 PM, Old: 600.00, New: 500.00
Zero Mode Changed: 8/19/2022 12:27:22 PM, Old:OFF, New:Reading
Zero Mode Changed: 8/19/2022 12:27:22 PM, Old:Reading, New:ON
Scan mode: Changed: 8/19/2022 12:28:28 PM, Old:Emission, New:Excitation
Excitation Wavelength Changed: 8/19/2022 12:28:28 PM, Old: 300.00, New: 240.00
Emission Wavelength Changed: 8/19/2022 12:28:28 PM, Old: 310.00, New: 400.00
Stop Wavelength Changed: 8/19/2022 12:28:28 PM, Old: 500.00, New: 390.00
Zero Mode Changed: 8/19/2022 12:28:31 PM, Old:ON, New:Reading
Zero Mode Changed: 8/19/2022 12:28:31 PM, Old:Reading, New:ON
Scan mode: Changed: 8/19/2022 12:29:17 PM, Old:Excitation, New:Emission
Excitation Wavelength Changed: 8/19/2022 12:29:17 PM, Old: 240.00, New: 330.00
Emission Wavelength Changed: 8/19/2022 12:29:17 PM, Old: 400.00, New: 340.00
Stop Wavelength Changed: 8/19/2022 12:29:17 PM, Old: 390.00, New: 500.00
Zero Mode Changed: 8/19/2022 12:29:19 PM, Old:ON, New:Reading
Zero Mode Changed: 8/19/2022 12:29:19 PM, Old:Reading, New:ON
Scan mode: Changed: 8/19/2022 12:30:02 PM, Old:Emission, New:Excitation
Excitation Wavelength Changed: 8/19/2022 12:30:02 PM, Old: 330.00, New: 240.00
Emission Wavelength Changed: 8/19/2022 12:30:02 PM, Old: 340.00, New: 410.00
Stop Wavelength Changed: 8/19/2022 12:30:02 PM, Old: 500.00, New: 400.00
Zero Mode Changed: 8/19/2022 12:30:08 PM, Old:ON, New:Reading
Zero Mode Changed: 8/19/2022 12:30:08 PM, Old:Reading, New:ON
Scan mode: Changed: 8/19/2022 12:30:53 PM, Old:Excitation, New:Emission
Excitation Wavelength Changed: 8/19/2022 12:30:53 PM, Old: 240.00, New: 335.00
Emission Wavelength Changed: 8/19/2022 12:30:53 PM, Old: 410.00, New: 345.00
Stop Wavelength Changed: 8/19/2022 12:30:53 PM, Old: 400.00, New: 600.00
Zero Mode Changed: 8/19/2022 12:30:55 PM, Old:ON, New:Reading
Zero Mode Changed: 8/19/2022 12:30:55 PM, Old:Reading, New:ON
Zero Mode Changed: 8/19/2022 12:34:51 PM, Old:ON, New:Reading
Zero Mode Changed: 8/19/2022 12:34:51 PM, Old:Reading, New:ON
Scan mode: Changed: 8/19/2022 12:35:39 PM, Old:Emission, New:Excitation
Excitation Wavelength Changed: 8/19/2022 12:35:39 PM, Old: 335.00, New: 240.00
Emission Wavelength Changed: 8/19/2022 12:35:39 PM, Old: 345.00, New: 410.00
Stop Wavelength Changed: 8/19/2022 12:35:39 PM, Old: 600.00, New: 400.00
Zero Mode Changed: 8/19/2022 12:35:42 PM, Old:ON, New:Reading
Zero Mode Changed: 8/19/2022 12:35:43 PM, Old:Reading, New:ON
End Method Modifications

CdS sonochem 90min ex300,
CdS sonochem 90min ex300
Collection Time: 8/19/2022 12:37:00 PM
Operator Name  :
Scan Software Version: 1.1(132)
Parameter List :
Instrument                        Cary Eclipse
Instrument Serial Number          E08013467
Data mode                         Fluorescence
Scan mode                         Emission
X Mode                            Wavelength (nm)
Start (nm)                        310.00
Stop (nm)                         600.00
Ex. Wavelength (nm)               300.00
Ex. Slit (nm)                     5
Em. Slit (nm)                     5
Scan rate (nm/min)                600.00
Data interval (nm)                1.0000
Averaging Time (s)                0.1000
Excitation filter                 Auto
Emission filter                   Open
PMT voltage (V)                   Medium
Corrected spectra                 OFF
Method Log     :
Method Name    : Default
Date/Time stamp: 8/19/2022 12:23:28 PM
Method Modifications:
Overlayed Graphs Changed: 8/19/2022 12:24:53 PM, Old:OFF, New:ON
Y max Changed: 8/19/2022 12:24:53 PM, Old:  1000.0000, New:   300.0000
Excitation Wavelength Changed: 8/19/2022 12:27:20 PM, Old: 350.00, New: 300.00
Emission Wavelength Changed: 8/19/2022 12:27:20 PM, Old: 400.00, New: 310.00
Stop Wavelength Changed: 8/19/2022 12:27:20 PM, Old: 600.00, New: 500.00
Zero Mode Changed: 8/19/2022 12:27:22 PM, Old:OFF, New:Reading
Zero Mode Changed: 8/19/2022 12:27:22 PM, Old:Reading, New:ON
Scan mode: Changed: 8/19/2022 12:28:28 PM, Old:Emission, New:Excitation
Excitation Wavelength Changed: 8/19/2022 12:28:28 PM, Old: 300.00, New: 240.00
Emission Wavelength Changed: 8/19/2022 12:28:28 PM, Old: 310.00, New: 400.00
Stop Wavelength Changed: 8/19/2022 12:28:28 PM, Old: 500.00, New: 390.00
Zero Mode Changed: 8/19/2022 12:28:31 PM, Old:ON, New:Reading
Zero Mode Changed: 8/19/2022 12:28:31 PM, Old:Reading, New:ON
Scan mode: Changed: 8/19/2022 12:29:17 PM, Old:Excitation, New:Emission
Excitation Wavelength Changed: 8/19/2022 12:29:17 PM, Old: 240.00, New: 330.00
Emission Wavelength Changed: 8/19/2022 12:29:17 PM, Old: 400.00, New: 340.00
Stop Wavelength Changed: 8/19/2022 12:29:17 PM, Old: 390.00, New: 500.00
Zero Mode Changed: 8/19/2022 12:29:19 PM, Old:ON, New:Reading
Zero Mode Changed: 8/19/2022 12:29:19 PM, Old:Reading, New:ON
Scan mode: Changed: 8/19/2022 12:30:02 PM, Old:Emission, New:Excitation
Excitation Wavelength Changed: 8/19/2022 12:30:02 PM, Old: 330.00, New: 240.00
Emission Wavelength Changed: 8/19/2022 12:30:02 PM, Old: 340.00, New: 410.00
Stop Wavelength Changed: 8/19/2022 12:30:02 PM, Old: 500.00, New: 400.00
Zero Mode Changed: 8/19/2022 12:30:08 PM, Old:ON, New:Reading
Zero Mode Changed: 8/19/2022 12:30:08 PM, Old:Reading, New:ON
Scan mode: Changed: 8/19/2022 12:30:53 PM, Old:Excitation, New:Emission
Excitation Wavelength Changed: 8/19/2022 12:30:53 PM, Old: 240.00, New: 335.00
Emission Wavelength Changed: 8/19/2022 12:30:53 PM, Old: 410.00, New: 345.00
Stop Wavelength Changed: 8/19/2022 12:30:53 PM, Old: 400.00, New: 600.00
Zero Mode Changed: 8/19/2022 12:30:55 PM, Old:ON, New:Reading
Zero Mode Changed: 8/19/2022 12:30:55 PM, Old:Reading, New:ON
Zero Mode Changed: 8/19/2022 12:34:51 PM, Old:ON, New:Reading
Zero Mode Changed: 8/19/2022 12:34:51 PM, Old:Reading, New:ON
Scan mode: Changed: 8/19/2022 12:35:39 PM, Old:Emission, New:Excitation
Excitation Wavelength Changed: 8/19/2022 12:35:39 PM, Old: 335.00, New: 240.00
Emission Wavelength Changed: 8/19/2022 12:35:39 PM, Old: 345.00, New: 410.00
Stop Wavelength Changed: 8/19/2022 12:35:39 PM, Old: 600.00, New: 400.00
Zero Mode Changed: 8/19/2022 12:35:42 PM, Old:ON, New:Reading
Zero Mode Changed: 8/19/2022 12:35:43 PM, Old:Reading, New:ON
Scan mode: Changed: 8/19/2022 12:36:52 PM, Old:Excitation, New:Emission
Excitation Wavelength Changed: 8/19/2022 12:36:52 PM, Old: 240.00, New: 300.00
Emission Wavelength Changed: 8/19/2022 12:36:52 PM, Old: 410.00, New: 310.00
Stop Wavelength Changed: 8/19/2022 12:36:52 PM, Old: 400.00, New: 600.00
Zero Mode Changed: 8/19/2022 12:36:54 PM, Old:ON, New:Reading
Zero Mode Changed: 8/19/2022 12:36:54 PM, Old:Reading, New:ON
End Method Modifications

CdS sonochem 90min em350,
CdS sonochem 90min em350
Collection Time: 8/19/2022 12:37:55 PM
Operator Name  :
Scan Software Version: 1.1(132)
Parameter List :
Instrument                        Cary Eclipse
Instrument Serial Number          E08013467
Data mode                         Fluorescence
Scan mode                         Excitation
X Mode                            Wavelength (nm)
Start (nm)                        240.00
Stop (nm)                         340.00
Em. Wavelength (nm)               350.00
Ex. Slit (nm)                     5
Em. Slit (nm)                     5
Scan rate (nm/min)                600.00
Data interval (nm)                1.0000
Averaging Time (s)                0.1000
Excitation filter                 Auto
Emission filter                   Open
PMT voltage (V)                   Medium
Corrected spectra                 OFF
Method Log     :
Method Name    : Default
Date/Time stamp: 8/19/2022 12:23:28 PM
Method Modifications:
Overlayed Graphs Changed: 8/19/2022 12:24:53 PM, Old:OFF, New:ON
Y max Changed: 8/19/2022 12:24:53 PM, Old:  1000.0000, New:   300.0000
Excitation Wavelength Changed: 8/19/2022 12:27:20 PM, Old: 350.00, New: 300.00
Emission Wavelength Changed: 8/19/2022 12:27:20 PM, Old: 400.00, New: 310.00
Stop Wavelength Changed: 8/19/2022 12:27:20 PM, Old: 600.00, New: 500.00
Zero Mode Changed: 8/19/2022 12:27:22 PM, Old:OFF, New:Reading
Zero Mode Changed: 8/19/2022 12:27:22 PM, Old:Reading, New:ON
Scan mode: Changed: 8/19/2022 12:28:28 PM, Old:Emission, New:Excitation
Excitation Wavelength Changed: 8/19/2022 12:28:28 PM, Old: 300.00, New: 240.00
Emission Wavelength Changed: 8/19/2022 12:28:28 PM, Old: 310.00, New: 400.00
Stop Wavelength Changed: 8/19/2022 12:28:28 PM, Old: 500.00, New: 390.00
Zero Mode Changed: 8/19/2022 12:28:31 PM, Old:ON, New:Reading
Zero Mode Changed: 8/19/2022 12:28:31 PM, Old:Reading, New:ON
Scan mode: Changed: 8/19/2022 12:29:17 PM, Old:Excitation, New:Emission
Excitation Wavelength Changed: 8/19/2022 12:29:17 PM, Old: 240.00, New: 330.00
Emission Wavelength Changed: 8/19/2022 12:29:17 PM, Old: 400.00, New: 340.00
Stop Wavelength Changed: 8/19/2022 12:29:17 PM, Old: 390.00, New: 500.00
Zero Mode Changed: 8/19/2022 12:29:19 PM, Old:ON, New:Reading
Zero Mode Changed: 8/19/2022 12:29:19 PM, Old:Reading, New:ON
Scan mode: Changed: 8/19/2022 12:30:02 PM, Old:Emission, New:Excitation
Excitation Wavelength Changed: 8/19/2022 12:30:02 PM, Old: 330.00, New: 240.00
Emission Wavelength Changed: 8/19/2022 12:30:02 PM, Old: 340.00, New: 410.00
Stop Wavelength Changed: 8/19/2022 12:30:02 PM, Old: 500.00, New: 400.00
Zero Mode Changed: 8/19/2022 12:30:08 PM, Old:ON, New:Reading
Zero Mode Changed: 8/19/2022 12:30:08 PM, Old:Reading, New:ON
Scan mode: Changed: 8/19/2022 12:30:53 PM, Old:Excitation, New:Emission
Excitation Wavelength Changed: 8/19/2022 12:30:53 PM, Old: 240.00, New: 335.00
Emission Wavelength Changed: 8/19/2022 12:30:53 PM, Old: 410.00, New: 345.00
Stop Wavelength Changed: 8/19/2022 12:30:53 PM, Old: 400.00, New: 600.00
Zero Mode Changed: 8/19/2022 12:30:55 PM, Old:ON, New:Reading
Zero Mode Changed: 8/19/2022 12:30:55 PM, Old:Reading, New:ON
Zero Mode Changed: 8/19/2022 12:34:51 PM, Old:ON, New:Reading
Zero Mode Changed: 8/19/2022 12:34:51 PM, Old:Reading, New:ON
Scan mode: Changed: 8/19/2022 12:35:39 PM, Old:Emission, New:Excitation
Excitation Wavelength Changed: 8/19/2022 12:35:39 PM, Old: 335.00, New: 240.00
Emission Wavelength Changed: 8/19/2022 12:35:39 PM, Old: 345.00, New: 410.00
Stop Wavelength Changed: 8/19/2022 12:35:39 PM, Old: 600.00, New: 400.00
Zero Mode Changed: 8/19/2022 12:35:42 PM, Old:ON, New:Reading
Zero Mode Changed: 8/19/2022 12:35:43 PM, Old:Reading, New:ON
Scan mode: Changed: 8/19/2022 12:36:52 PM, Old:Excitation, New:Emission
Excitation Wavelength Changed: 8/19/2022 12:36:52 PM, Old: 240.00, New: 300.00
Emission Wavelength Changed: 8/19/2022 12:36:52 PM, Old: 410.00, New: 310.00
Stop Wavelength Changed: 8/19/2022 12:36:52 PM, Old: 400.00, New: 600.00
Zero Mode Changed: 8/19/2022 12:36:54 PM, Old:ON, New:Reading
Zero Mode Changed: 8/19/2022 12:36:54 PM, Old:Reading, New:ON
Scan mode: Changed: 8/19/2022 12:37:46 PM, Old:Emission, New:Excitation
Excitation Wavelength Changed: 8/19/2022 12:37:46 PM, Old: 300.00, New: 240.00
Emission Wavelength Changed: 8/19/2022 12:37:46 PM, Old: 310.00, New: 350.00
Stop Wavelength Changed: 8/19/2022 12:37:46 PM, Old: 600.00, New: 340.00
Zero Mode Changed: 8/19/2022 12:37:49 PM, Old:ON, New:Reading
Zero Mode Changed: 8/19/2022 12:37:49 PM, Old:Reading, New:ON
End Method Modifications

CdS sonochem 90min ex295,
CdS sonochem 90min ex295
Collection Time: 8/19/2022 12:38:39 PM
Operator Name  :
Scan Software Version: 1.1(132)
Parameter List :
Instrument                        Cary Eclipse
Instrument Serial Number          E08013467
Data mode                         Fluorescence
Scan mode                         Emission
X Mode                            Wavelength (nm)
Start (nm)                        305.00
Stop (nm)                         550.00
Ex. Wavelength (nm)               295.00
Ex. Slit (nm)                     5
Em. Slit (nm)                     5
Scan rate (nm/min)                600.00
Data interval (nm)                1.0000
Averaging Time (s)                0.1000
Excitation filter                 Auto
Emission filter                   Open
PMT voltage (V)                   Medium
Corrected spectra                 OFF
Method Log     :
Method Name    : Default
Date/Time stamp: 8/19/2022 12:23:28 PM
Method Modifications:
Overlayed Graphs Changed: 8/19/2022 12:24:53 PM, Old:OFF, New:ON
Y max Changed: 8/19/2022 12:24:53 PM, Old:  1000.0000, New:   300.0000
Excitation Wavelength Changed: 8/19/2022 12:27:20 PM, Old: 350.00, New: 300.00
Emission Wavelength Changed: 8/19/2022 12:27:20 PM, Old: 400.00, New: 310.00
Stop Wavelength Changed: 8/19/2022 12:27:20 PM, Old: 600.00, New: 500.00
Zero Mode Changed: 8/19/2022 12:27:22 PM, Old:OFF, New:Reading
Zero Mode Changed: 8/19/2022 12:27:22 PM, Old:Reading, New:ON
Scan mode: Changed: 8/19/2022 12:28:28 PM, Old:Emission, New:Excitation
Excitation Wavelength Changed: 8/19/2022 12:28:28 PM, Old: 300.00, New: 240.00
Emission Wavelength Changed: 8/19/2022 12:28:28 PM, Old: 310.00, New: 400.00
Stop Wavelength Changed: 8/19/2022 12:28:28 PM, Old: 500.00, New: 390.00
Zero Mode Changed: 8/19/2022 12:28:31 PM, Old:ON, New:Reading
Zero Mode Changed: 8/19/2022 12:28:31 PM, Old:Reading, New:ON
Scan mode: Changed: 8/19/2022 12:29:17 PM, Old:Excitation, New:Emission
Excitation Wavelength Changed: 8/19/2022 12:29:17 PM, Old: 240.00, New: 330.00
Emission Wavelength Changed: 8/19/2022 12:29:17 PM, Old: 400.00, New: 340.00
Stop Wavelength Changed: 8/19/2022 12:29:17 PM, Old: 390.00, New: 500.00
Zero Mode Changed: 8/19/2022 12:29:19 PM, Old:ON, New:Reading
Zero Mode Changed: 8/19/2022 12:29:19 PM, Old:Reading, New:ON
Scan mode: Changed: 8/19/2022 12:30:02 PM, Old:Emission, New:Excitation
Excitation Wavelength Changed: 8/19/2022 12:30:02 PM, Old: 330.00, New: 240.00
Emission Wavelength Changed: 8/19/2022 12:30:02 PM, Old: 340.00, New: 410.00
Stop Wavelength Changed: 8/19/2022 12:30:02 PM, Old: 500.00, New: 400.00
Zero Mode Changed: 8/19/2022 12:30:08 PM, Old:ON, New:Reading
Zero Mode Changed: 8/19/2022 12:30:08 PM, Old:Reading, New:ON
Scan mode: Changed: 8/19/2022 12:30:53 PM, Old:Excitation, New:Emission
Excitation Wavelength Changed: 8/19/2022 12:30:53 PM, Old: 240.00, New: 335.00
Emission Wavelength Changed: 8/19/2022 12:30:53 PM, Old: 410.00, New: 345.00
Stop Wavelength Changed: 8/19/2022 12:30:53 PM, Old: 400.00, New: 600.00
Zero Mode Changed: 8/19/2022 12:30:55 PM, Old:ON, New:Reading
Zero Mode Changed: 8/19/2022 12:30:55 PM, Old:Reading, New:ON
Zero Mode Changed: 8/19/2022 12:34:51 PM, Old:ON, New:Reading
Zero Mode Changed: 8/19/2022 12:34:51 PM, Old:Reading, New:ON
Scan mode: Changed: 8/19/2022 12:35:39 PM, Old:Emission, New:Excitation
Excitation Wavelength Changed: 8/19/2022 12:35:39 PM, Old: 335.00, New: 240.00
Emission Wavelength Changed: 8/19/2022 12:35:39 PM, Old: 345.00, New: 410.00
Stop Wavelength Changed: 8/19/2022 12:35:39 PM, Old: 600.00, New: 400.00
Zero Mode Changed: 8/19/2022 12:35:42 PM, Old:ON, New:Reading
Zero Mode Changed: 8/19/2022 12:35:43 PM, Old:Reading, New:ON
Scan mode: Changed: 8/19/2022 12:36:52 PM, Old:Excitation, New:Emission
Excitation Wavelength Changed: 8/19/2022 12:36:52 PM, Old: 240.00, New: 300.00
Emission Wavelength Changed: 8/19/2022 12:36:52 PM, Old: 410.00, New: 310.00
Stop Wavelength Changed: 8/19/2022 12:36:52 PM, Old: 400.00, New: 600.00
Zero Mode Changed: 8/19/2022 12:36:54 PM, Old:ON, New:Reading
Zero Mode Changed: 8/19/2022 12:36:54 PM, Old:Reading, New:ON
Scan mode: Changed: 8/19/2022 12:37:46 PM, Old:Emission, New:Excitation
Excitation Wavelength Changed: 8/19/2022 12:37:46 PM, Old: 300.00, New: 240.00
Emission Wavelength Changed: 8/19/2022 12:37:46 PM, Old: 310.00, New: 350.00
Stop Wavelength Changed: 8/19/2022 12:37:46 PM, Old: 600.00, New: 340.00
Zero Mode Changed: 8/19/2022 12:37:49 PM, Old:ON, New:Reading
Zero Mode Changed: 8/19/2022 12:37:49 PM, Old:Reading, New:ON
Scan mode: Changed: 8/19/2022 12:38:28 PM, Old:Excitation, New:Emission
Excitation Wavelength Changed: 8/19/2022 12:38:28 PM, Old: 240.00, New: 295.00
Emission Wavelength Changed: 8/19/2022 12:38:28 PM, Old: 350.00, New: 305.00
Stop Wavelength Changed: 8/19/2022 12:38:28 PM, Old: 340.00, New: 550.00
Zero Mode Changed: 8/19/2022 12:38:31 PM, Old:ON, New:Reading
Zero Mode Changed: 8/19/2022 12:38:31 PM, Old:Reading, New:ON
End Method Modifications

CdS sonochem 90min ex295 slow,
CdS sonochem 90min ex295 slow
Collection Time: 8/19/2022 12:39:19 PM
Operator Name  :
Scan Software Version: 1.1(132)
Parameter List :
Instrument                        Cary Eclipse
Instrument Serial Number          E08013467
Data mode                         Fluorescence
Scan mode                         Emission
X Mode                            Wavelength (nm)
Start (nm)                        305.00
Stop (nm)                         550.00
Ex. Wavelength (nm)               295.00
Ex. Slit (nm)                     5
Em. Slit (nm)                     5
Scan rate (nm/min)                120.00
Data interval (nm)                1.0000
Averaging Time (s)                0.5000
Excitation filter                 Auto
Emission filter                   Open
PMT voltage (V)                   Medium
Corrected spectra                 OFF
Method Log     :
Method Name    : Default
Date/Time stamp: 8/19/2022 12:23:28 PM
Method Modifications:
Overlayed Graphs Changed: 8/19/2022 12:24:53 PM, Old:OFF, New:ON
Y max Changed: 8/19/2022 12:24:53 PM, Old:  1000.0000, New:   300.0000
Excitation Wavelength Changed: 8/19/2022 12:27:20 PM, Old: 350.00, New: 300.00
Emission Wavelength Changed: 8/19/2022 12:27:20 PM, Old: 400.00, New: 310.00
Stop Wavelength Changed: 8/19/2022 12:27:20 PM, Old: 600.00, New: 500.00
Zero Mode Changed: 8/19/2022 12:27:22 PM, Old:OFF, New:Reading
Zero Mode Changed: 8/19/2022 12:27:22 PM, Old:Reading, New:ON
Scan mode: Changed: 8/19/2022 12:28:28 PM, Old:Emission, New:Excitation
Excitation Wavelength Changed: 8/19/2022 12:28:28 PM, Old: 300.00, New: 240.00
Emission Wavelength Changed: 8/19/2022 12:28:28 PM, Old: 310.00, New: 400.00
Stop Wavelength Changed: 8/19/2022 12:28:28 PM, Old: 500.00, New: 390.00
Zero Mode Changed: 8/19/2022 12:28:31 PM, Old:ON, New:Reading
Zero Mode Changed: 8/19/2022 12:28:31 PM, Old:Reading, New:ON
Scan mode: Changed: 8/19/2022 12:29:17 PM, Old:Excitation, New:Emission
Excitation Wavelength Changed: 8/19/2022 12:29:17 PM, Old: 240.00, New: 330.00
Emission Wavelength Changed: 8/19/2022 12:29:17 PM, Old: 400.00, New: 340.00
Stop Wavelength Changed: 8/19/2022 12:29:17 PM, Old: 390.00, New: 500.00
Zero Mode Changed: 8/19/2022 12:29:19 PM, Old:ON, New:Reading
Zero Mode Changed: 8/19/2022 12:29:19 PM, Old:Reading, New:ON
Scan mode: Changed: 8/19/2022 12:30:02 PM, Old:Emission, New:Excitation
Excitation Wavelength Changed: 8/19/2022 12:30:02 PM, Old: 330.00, New: 240.00
Emission Wavelength Changed: 8/19/2022 12:30:02 PM, Old: 340.00, New: 410.00
Stop Wavelength Changed: 8/19/2022 12:30:02 PM, Old: 500.00, New: 400.00
Zero Mode Changed: 8/19/2022 12:30:08 PM, Old:ON, New:Reading
Zero Mode Changed: 8/19/2022 12:30:08 PM, Old:Reading, New:ON
Scan mode: Changed: 8/19/2022 12:30:53 PM, Old:Excitation, New:Emission
Excitation Wavelength Changed: 8/19/2022 12:30:53 PM, Old: 240.00, New: 335.00
Emission Wavelength Changed: 8/19/2022 12:30:53 PM, Old: 410.00, New: 345.00
Stop Wavelength Changed: 8/19/2022 12:30:53 PM, Old: 400.00, New: 600.00
Zero Mode Changed: 8/19/2022 12:30:55 PM, Old:ON, New:Reading
Zero Mode Changed: 8/19/2022 12:30:55 PM, Old:Reading, New:ON
Zero Mode Changed: 8/19/2022 12:34:51 PM, Old:ON, New:Reading
Zero Mode Changed: 8/19/2022 12:34:51 PM, Old:Reading, New:ON
Scan mode: Changed: 8/19/2022 12:35:39 PM, Old:Emission, New:Excitation
Excitation Wavelength Changed: 8/19/2022 12:35:39 PM, Old: 335.00, New: 240.00
Emission Wavelength Changed: 8/19/2022 12:35:39 PM, Old: 345.00, New: 410.00
Stop Wavelength Changed: 8/19/2022 12:35:39 PM, Old: 600.00, New: 400.00
Zero Mode Changed: 8/19/2022 12:35:42 PM, Old:ON, New:Reading
Zero Mode Changed: 8/19/2022 12:35:43 PM, Old:Reading, New:ON
Scan mode: Changed: 8/19/2022 12:36:52 PM, Old:Excitation, New:Emission
Excitation Wavelength Changed: 8/19/2022 12:36:52 PM, Old: 240.00, New: 300.00
Emission Wavelength Changed: 8/19/2022 12:36:52 PM, Old: 410.00, New: 310.00
Stop Wavelength Changed: 8/19/2022 12:36:52 PM, Old: 400.00, New: 600.00
Zero Mode Changed: 8/19/2022 12:36:54 PM, Old:ON, New:Reading
Zero Mode Changed: 8/19/2022 12:36:54 PM, Old:Reading, New:ON
Scan mode: Changed: 8/19/2022 12:37:46 PM, Old:Emission, New:Excitation
Excitation Wavelength Changed: 8/19/2022 12:37:46 PM, Old: 300.00, New: 240.00
Emission Wavelength Changed: 8/19/2022 12:37:46 PM, Old: 310.00, New: 350.00
Stop Wavelength Changed: 8/19/2022 12:37:46 PM, Old: 600.00, New: 340.00
Zero Mode Changed: 8/19/2022 12:37:49 PM, Old:ON, New:Reading
Zero Mode Changed: 8/19/2022 12:37:49 PM, Old:Reading, New:ON
Scan mode: Changed: 8/19/2022 12:38:28 PM, Old:Excitation, New:Emission
Excitation Wavelength Changed: 8/19/2022 12:38:28 PM, Old: 240.00, New: 295.00
Emission Wavelength Changed: 8/19/2022 12:38:28 PM, Old: 350.00, New: 305.00
Stop Wavelength Changed: 8/19/2022 12:38:28 PM, Old: 340.00, New: 550.00
Zero Mode Changed: 8/19/2022 12:38:31 PM, Old:ON, New:Reading
Zero Mode Changed: 8/19/2022 12:38:31 PM, Old:Reading, New:ON
Scan Control Changed: 8/19/2022 12:39:12 PM, Old:Medium, New:Slow
Ave. time (s): Changed: 8/19/2022 12:39:12 PM, Old:0.10000, New:0.50000
Zero Mode Changed: 8/19/2022 12:39:14 PM, Old:ON, New:Reading
Zero Mode Changed: 8/19/2022 12:39:14 PM, Old:Reading, New:ON
End Method Modifications

CdS sonochem 90min ex335 slow,
CdS sonochem 90min ex335 slow
Collection Time: 8/19/2022 12:42:11 PM
Operator Name  :
Scan Software Version: 1.1(132)
Parameter List :
Instrument                        Cary Eclipse
Instrument Serial Number          E08013467
Data mode                         Fluorescence
Scan mode                         Emission
X Mode                            Wavelength (nm)
Start (nm)                        345.00
Stop (nm)                         600.00
Ex. Wavelength (nm)               335.00
Ex. Slit (nm)                     5
Em. Slit (nm)                     5
Scan rate (nm/min)                120.00
Data interval (nm)                1.0000
Averaging Time (s)                0.5000
Excitation filter                 Auto
Emission filter                   Open
PMT voltage (V)                   Medium
Corrected spectra                 OFF
Method Log     :
Method Name    : Default
Date/Time stamp: 8/19/2022 12:23:28 PM
Method Modifications:
Overlayed Graphs Changed: 8/19/2022 12:24:53 PM, Old:OFF, New:ON
Y max Changed: 8/19/2022 12:24:53 PM, Old:  1000.0000, New:   300.0000
Excitation Wavelength Changed: 8/19/2022 12:27:20 PM, Old: 350.00, New: 300.00
Emission Wavelength Changed: 8/19/2022 12:27:20 PM, Old: 400.00, New: 310.00
Stop Wavelength Changed: 8/19/2022 12:27:20 PM, Old: 600.00, New: 500.00
Zero Mode Changed: 8/19/2022 12:27:22 PM, Old:OFF, New:Reading
Zero Mode Changed: 8/19/2022 12:27:22 PM, Old:Reading, New:ON
Scan mode: Changed: 8/19/2022 12:28:28 PM, Old:Emission, New:Excitation
Excitation Wavelength Changed: 8/19/2022 12:28:28 PM, Old: 300.00, New: 240.00
Emission Wavelength Changed: 8/19/2022 12:28:28 PM, Old: 310.00, New: 400.00
Stop Wavelength Changed: 8/19/2022 12:28:28 PM, Old: 500.00, New: 390.00
Zero Mode Changed: 8/19/2022 12:28:31 PM, Old:ON, New:Reading
Zero Mode Changed: 8/19/2022 12:28:31 PM, Old:Reading, New:ON
Scan mode: Changed: 8/19/2022 12:29:17 PM, Old:Excitation, New:Emission
Excitation Wavelength Changed: 8/19/2022 12:29:17 PM, Old: 240.00, New: 330.00
Emission Wavelength Changed: 8/19/2022 12:29:17 PM, Old: 400.00, New: 340.00
Stop Wavelength Changed: 8/19/2022 12:29:17 PM, Old: 390.00, New: 500.00
Zero Mode Changed: 8/19/2022 12:29:19 PM, Old:ON, New:Reading
Zero Mode Changed: 8/19/2022 12:29:19 PM, Old:Reading, New:ON
Scan mode: Changed: 8/19/2022 12:30:02 PM, Old:Emission, New:Excitation
Excitation Wavelength Changed: 8/19/2022 12:30:02 PM, Old: 330.00, New: 240.00
Emission Wavelength Changed: 8/19/2022 12:30:02 PM, Old: 340.00, New: 410.00
Stop Wavelength Changed: 8/19/2022 12:30:02 PM, Old: 500.00, New: 400.00
Zero Mode Changed: 8/19/2022 12:30:08 PM, Old:ON, New:Reading
Zero Mode Changed: 8/19/2022 12:30:08 PM, Old:Reading, New:ON
Scan mode: Changed: 8/19/2022 12:30:53 PM, Old:Excitation, New:Emission
Excitation Wavelength Changed: 8/19/2022 12:30:53 PM, Old: 240.00, New: 335.00
Emission Wavelength Changed: 8/19/2022 12:30:53 PM, Old: 410.00, New: 345.00
Stop Wavelength Changed: 8/19/2022 12:30:53 PM, Old: 400.00, New: 600.00
Zero Mode Changed: 8/19/2022 12:30:55 PM, Old:ON, New:Reading
Zero Mode Changed: 8/19/2022 12:30:55 PM, Old:Reading, New:ON
Zero Mode Changed: 8/19/2022 12:34:51 PM, Old:ON, New:Reading
Zero Mode Changed: 8/19/2022 12:34:51 PM, Old:Reading, New:ON
Scan mode: Changed: 8/19/2022 12:35:39 PM, Old:Emission, New:Excitation
Excitation Wavelength Changed: 8/19/2022 12:35:39 PM, Old: 335.00, New: 240.00
Emission Wavelength Changed: 8/19/2022 12:35:39 PM, Old: 345.00, New: 410.00
Stop Wavelength Changed: 8/19/2022 12:35:39 PM, Old: 600.00, New: 400.00
Zero Mode Changed: 8/19/2022 12:35:42 PM, Old:ON, New:Reading
Zero Mode Changed: 8/19/2022 12:35:43 PM, Old:Reading, New:ON
Scan mode: Changed: 8/19/2022 12:36:52 PM, Old:Excitation, New:Emission
Excitation Wavelength Changed: 8/19/2022 12:36:52 PM, Old: 240.00, New: 300.00
Emission Wavelength Changed: 8/19/2022 12:36:52 PM, Old: 410.00, New: 310.00
Stop Wavelength Changed: 8/19/2022 12:36:52 PM, Old: 400.00, New: 600.00
Zero Mode Changed: 8/19/2022 12:36:54 PM, Old:ON, New:Reading
Zero Mode Changed: 8/19/2022 12:36:54 PM, Old:Reading, New:ON
Scan mode: Changed: 8/19/2022 12:37:46 PM, Old:Emission, New:Excitation
Excitation Wavelength Changed: 8/19/2022 12:37:46 PM, Old: 300.00, New: 240.00
Emission Wavelength Changed: 8/19/2022 12:37:46 PM, Old: 310.00, New: 350.00
Stop Wavelength Changed: 8/19/2022 12:37:46 PM, Old: 600.00, New: 340.00
Zero Mode Changed: 8/19/2022 12:37:49 PM, Old:ON, New:Reading
Zero Mode Changed: 8/19/2022 12:37:49 PM, Old:Reading, New:ON
Scan mode: Changed: 8/19/2022 12:38:28 PM, Old:Excitation, New:Emission
Excitation Wavelength Changed: 8/19/2022 12:38:28 PM, Old: 240.00, New: 295.00
Emission Wavelength Changed: 8/19/2022 12:38:28 PM, Old: 350.00, New: 305.00
Stop Wavelength Changed: 8/19/2022 12:38:28 PM, Old: 340.00, New: 550.00
Zero Mode Changed: 8/19/2022 12:38:31 PM, Old:ON, New:Reading
Zero Mode Changed: 8/19/2022 12:38:31 PM, Old:Reading, New:ON
Scan Control Changed: 8/19/2022 12:39:12 PM, Old:Medium, New:Slow
Ave. time (s): Changed: 8/19/2022 12:39:12 PM, Old:0.10000, New:0.50000
Zero Mode Changed: 8/19/2022 12:39:14 PM, Old:ON, New:Reading
Zero Mode Changed: 8/19/2022 12:39:14 PM, Old:Reading, New:ON
Excitation Wavelength Changed: 8/19/2022 12:41:46 PM, Old: 295.00, New: 335.00
Emission Wavelength Changed: 8/19/2022 12:41:46 PM, Old: 305.00, New: 345.00
Stop Wavelength Changed: 8/19/2022 12:41:46 PM, Old: 550.00, New: 600.00
Zero Mode Changed: 8/19/2022 12:41:49 PM, Old:ON, New:Reading
Zero Mode Changed: 8/19/2022 12:41:50 PM, Old:Reading, New:ON
End Method Modifications

CdS sonochem 90min em410 slow,
CdS sonochem 90min em410 slow
Collection Time: 8/19/2022 12:46:52 PM
Operator Name  :
Scan Software Version: 1.1(132)
Parameter List :
Instrument                        Cary Eclipse
Instrument Serial Number          E08013467
Data mode                         Fluorescence
Scan mode                         Excitation
X Mode                            Wavelength (nm)
Start (nm)                        240.00
Stop (nm)                         400.00
Em. Wavelength (nm)               410.00
Ex. Slit (nm)                     5
Em. Slit (nm)                     5
Scan rate (nm/min)                120.00
Data interval (nm)                1.0000
Averaging Time (s)                0.5000
Excitation filter                 Auto
Emission filter                   Open
PMT voltage (V)                   Medium
Corrected spectra                 OFF
Method Log     :
Method Name    : Default
Date/Time stamp: 8/19/2022 12:23:28 PM
Method Modifications:
Overlayed Graphs Changed: 8/19/2022 12:24:53 PM, Old:OFF, New:ON
Y max Changed: 8/19/2022 12:24:53 PM, Old:  1000.0000, New:   300.0000
Excitation Wavelength Changed: 8/19/2022 12:27:20 PM, Old: 350.00, New: 300.00
Emission Wavelength Changed: 8/19/2022 12:27:20 PM, Old: 400.00, New: 310.00
Stop Wavelength Changed: 8/19/2022 12:27:20 PM, Old: 600.00, New: 500.00
Zero Mode Changed: 8/19/2022 12:27:22 PM, Old:OFF, New:Reading
Zero Mode Changed: 8/19/2022 12:27:22 PM, Old:Reading, New:ON
Scan mode: Changed: 8/19/2022 12:28:28 PM, Old:Emission, New:Excitation
Excitation Wavelength Changed: 8/19/2022 12:28:28 PM, Old: 300.00, New: 240.00
Emission Wavelength Changed: 8/19/2022 12:28:28 PM, Old: 310.00, New: 400.00
Stop Wavelength Changed: 8/19/2022 12:28:28 PM, Old: 500.00, New: 390.00
Zero Mode Changed: 8/19/2022 12:28:31 PM, Old:ON, New:Reading
Zero Mode Changed: 8/19/2022 12:28:31 PM, Old:Reading, New:ON
Scan mode: Changed: 8/19/2022 12:29:17 PM, Old:Excitation, New:Emission
Excitation Wavelength Changed: 8/19/2022 12:29:17 PM, Old: 240.00, New: 330.00
Emission Wavelength Changed: 8/19/2022 12:29:17 PM, Old: 400.00, New: 340.00
Stop Wavelength Changed: 8/19/2022 12:29:17 PM, Old: 390.00, New: 500.00
Zero Mode Changed: 8/19/2022 12:29:19 PM, Old:ON, New:Reading
Zero Mode Changed: 8/19/2022 12:29:19 PM, Old:Reading, New:ON
Scan mode: Changed: 8/19/2022 12:30:02 PM, Old:Emission, New:Excitation
Excitation Wavelength Changed: 8/19/2022 12:30:02 PM, Old: 330.00, New: 240.00
Emission Wavelength Changed: 8/19/2022 12:30:02 PM, Old: 340.00, New: 410.00
Stop Wavelength Changed: 8/19/2022 12:30:02 PM, Old: 500.00, New: 400.00
Zero Mode Changed: 8/19/2022 12:30:08 PM, Old:ON, New:Reading
Zero Mode Changed: 8/19/2022 12:30:08 PM, Old:Reading, New:ON
Scan mode: Changed: 8/19/2022 12:30:53 PM, Old:Excitation, New:Emission
Excitation Wavelength Changed: 8/19/2022 12:30:53 PM, Old: 240.00, New: 335.00
Emission Wavelength Changed: 8/19/2022 12:30:53 PM, Old: 410.00, New: 345.00
Stop Wavelength Changed: 8/19/2022 12:30:53 PM, Old: 400.00, New: 600.00
Zero Mode Changed: 8/19/2022 12:30:55 PM, Old:ON, New:Reading
Zero Mode Changed: 8/19/2022 12:30:55 PM, Old:Reading, New:ON
Zero Mode Changed: 8/19/2022 12:34:51 PM, Old:ON, New:Reading
Zero Mode Changed: 8/19/2022 12:34:51 PM, Old:Reading, New:ON
Scan mode: Changed: 8/19/2022 12:35:39 PM, Old:Emission, New:Excitation
Excitation Wavelength Changed: 8/19/2022 12:35:39 PM, Old: 335.00, New: 240.00
Emission Wavelength Changed: 8/19/2022 12:35:39 PM, Old: 345.00, New: 410.00
Stop Wavelength Changed: 8/19/2022 12:35:39 PM, Old: 600.00, New: 400.00
Zero Mode Changed: 8/19/2022 12:35:42 PM, Old:ON, New:Reading
Zero Mode Changed: 8/19/2022 12:35:43 PM, Old:Reading, New:ON
Scan mode: Changed: 8/19/2022 12:36:52 PM, Old:Excitation, New:Emission
Excitation Wavelength Changed: 8/19/2022 12:36:52 PM, Old: 240.00, New: 300.00
Emission Wavelength Changed: 8/19/2022 12:36:52 PM, Old: 410.00, New: 310.00
Stop Wavelength Changed: 8/19/2022 12:36:52 PM, Old: 400.00, New: 600.00
Zero Mode Changed: 8/19/2022 12:36:54 PM, Old:ON, New:Reading
Zero Mode Changed: 8/19/2022 12:36:54 PM, Old:Reading, New:ON
Scan mode: Changed: 8/19/2022 12:37:46 PM, Old:Emission, New:Excitation
Excitation Wavelength Changed: 8/19/2022 12:37:46 PM, Old: 300.00, New: 240.00
Emission Wavelength Changed: 8/19/2022 12:37:46 PM, Old: 310.00, New: 350.00
Stop Wavelength Changed: 8/19/2022 12:37:46 PM, Old: 600.00, New: 340.00
Zero Mode Changed: 8/19/2022 12:37:49 PM, Old:ON, New:Reading
Zero Mode Changed: 8/19/2022 12:37:49 PM, Old:Reading, New:ON
Scan mode: Changed: 8/19/2022 12:38:28 PM, Old:Excitation, New:Emission
Excitation Wavelength Changed: 8/19/2022 12:38:28 PM, Old: 240.00, New: 295.00
Emission Wavelength Changed: 8/19/2022 12:38:28 PM, Old: 350.00, New: 305.00
Stop Wavelength Changed: 8/19/2022 12:38:28 PM, Old: 340.00, New: 550.00
Zero Mode Changed: 8/19/2022 12:38:31 PM, Old:ON, New:Reading
Zero Mode Changed: 8/19/2022 12:38:31 PM, Old:Reading, New:ON
Scan Control Changed: 8/19/2022 12:39:12 PM, Old:Medium, New:Slow
Ave. time (s): Changed: 8/19/2022 12:39:12 PM, Old:0.10000, New:0.50000
Zero Mode Changed: 8/19/2022 12:39:14 PM, Old:ON, New:Reading
Zero Mode Changed: 8/19/2022 12:39:14 PM, Old:Reading, New:ON
Excitation Wavelength Changed: 8/19/2022 12:41:46 PM, Old: 295.00, New: 335.00
Emission Wavelength Changed: 8/19/2022 12:41:46 PM, Old: 305.00, New: 345.00
Stop Wavelength Changed: 8/19/2022 12:41:46 PM, Old: 550.00, New: 600.00
Zero Mode Changed: 8/19/2022 12:41:49 PM, Old:ON, New:Reading
Zero Mode Changed: 8/19/2022 12:41:50 PM, Old:Reading, New:ON
Scan mode: Changed: 8/19/2022 12:46:36 PM, Old:Emission, New:Excitation
Excitation Wavelength Changed: 8/19/2022 12:46:36 PM, Old: 335.00, New: 240.00
Emission Wavelength Changed: 8/19/2022 12:46:36 PM, Old: 345.00, New: 410.00
Stop Wavelength Changed: 8/19/2022 12:46:36 PM, Old: 600.00, New: 400.00
Zero Mode Changed: 8/19/2022 12:46:39 PM, Old:ON, New:Reading
Zero Mode Changed: 8/19/2022 12:46:40 PM, Old:Reading, New:ON
End Method Modifications

