PE FL                   SPECTRUM    ASCII       PEDS        1.60        
  -1
01#189.SP
02/03/17
05:46:47.00
02/03/17
05:49:15.00


580.000000
1









LS55
310.00
5.00
5.00
SCAN
1
20
100
100
0
100
0
1
0
1
7
ON
391 310 
1 0 0
#HDR
-1
-1
#GR
NM

0.00002384185791015625
0.0
340.000000
0.500000
481
8
3.548803
-0.000121
#DATA
340.000000	0.000000  
340.500000	-0.000113 
341.000000	0.000295  
341.500000	0.001340  
342.000000	0.002484  
342.500000	0.002696  
343.000000	0.002250  
343.500000	0.001492  
344.000000	0.000810  
344.500000	0.000386  
345.000000	0.002977  
345.500000	0.006219  
346.000000	0.007772  
346.500000	0.005287  
347.000000	0.002659  
347.500000	0.000977  
348.000000	0.000689  
348.500000	-0.000045 
349.000000	-0.000121 
349.500000	0.000000  
350.000000	-0.000060 
350.500000	-0.000053 
351.000000	0.000227  
351.500000	0.000522  
352.000000	0.002719  
352.500000	0.004810  
353.000000	0.005560  
353.500000	0.003848  
354.000000	0.002583  
354.500000	0.002848  
355.000000	0.004098  
355.500000	0.004295  
356.000000	0.003280  
356.500000	0.002393  
357.000000	0.001250  
357.500000	0.000757  
358.000000	0.001583  
358.500000	0.002954  
359.000000	0.003416  
359.500000	0.003530  
360.000000	0.005007  
360.500000	0.007575  
361.000000	0.009159  
361.500000	0.007954  
362.000000	0.006106  
362.500000	0.005318  
363.000000	0.005159  
363.500000	0.004575  
364.000000	0.004931  
364.500000	0.007015  
365.000000	0.012583  
365.500000	0.017128  
366.000000	0.019075  
366.500000	0.017469  
367.000000	0.014325  
367.500000	0.011750  
368.000000	0.013886  
368.500000	0.017189  
369.000000	0.018060  
369.500000	0.014500  
370.000000	0.012090  
370.500000	0.010946  
371.000000	0.013060  
371.500000	0.020484  
372.000000	0.028787  
372.500000	0.031590  
373.000000	0.031742  
373.500000	0.036674  
374.000000	0.044492  
374.500000	0.047840  
375.000000	0.046810  
375.500000	0.049371  
376.000000	0.049515  
376.500000	0.045500  
377.000000	0.044666  
377.500000	0.055265  
378.000000	0.062287  
378.500000	0.065515  
379.000000	0.069446  
379.500000	0.081545  
380.000000	0.089045  
380.500000	0.096159  
381.000000	0.107560  
381.500000	0.123462  
382.000000	0.131795  
382.500000	0.138045  
383.000000	0.145393  
383.500000	0.153583  
384.000000	0.153189  
384.500000	0.153750  
385.000000	0.156060  
385.500000	0.162621  
386.000000	0.168742  
386.500000	0.180045  
387.000000	0.196553  
387.500000	0.211416  
388.000000	0.222416  
388.500000	0.231719  
389.000000	0.245787  
389.500000	0.264469  
390.000000	0.277416  
390.500000	0.278848  
391.000000	0.281515  
391.500000	0.295946  
392.000000	0.318969  
392.500000	0.337098  
393.000000	0.347272  
393.500000	0.355696  
394.000000	0.363878  
394.500000	0.364454  
395.000000	0.365371  
395.500000	0.380674  
396.000000	0.408530  
396.500000	0.439265  
397.000000	0.453424  
397.500000	0.454250  
398.000000	0.451121  
398.500000	0.452719  
399.000000	0.461166  
399.500000	0.477575  
400.000000	0.499045  
400.500000	0.516848  
401.000000	0.530507  
401.500000	0.542946  
402.000000	0.571893  
402.500000	0.609333  
403.000000	0.630613  
403.500000	0.639416  
404.000000	0.647803  
404.500000	0.668674  
405.000000	0.687893  
405.500000	0.704143  
406.000000	0.721022  
406.500000	0.748075  
407.000000	0.777037  
407.500000	0.798803  
408.000000	0.817984  
408.500000	0.834098  
409.000000	0.856621  
409.500000	0.874901  
410.000000	0.886780  
410.500000	0.895681  
411.000000	0.918477  
411.500000	0.947795  
412.000000	0.977522  
412.500000	1.002787  
413.000000	1.026583  
413.500000	1.052325  
414.000000	1.083363  
414.500000	1.113757  
415.000000	1.135136  
415.500000	1.152613  
416.000000	1.183909  
416.500000	1.226833  
417.000000	1.264757  
417.500000	1.286901  
418.000000	1.328287  
418.500000	1.369151  
419.000000	1.408045  
419.500000	1.416477  
420.000000	1.434060  
420.500000	1.463507  
421.000000	1.524287  
421.500000	1.580916  
422.000000	1.628765  
422.500000	1.651696  
423.000000	1.666303  
423.500000	1.676674  
424.000000	1.699393  
424.500000	1.742833  
425.000000	1.796628  
425.500000	1.838363  
426.000000	1.861590  
426.500000	1.897780  
427.000000	1.929143  
427.500000	1.958734  
428.000000	1.966212  
428.500000	1.989189  
429.000000	2.031121  
429.500000	2.096090  
430.000000	2.149484  
430.500000	2.176333  
431.000000	2.173492  
431.500000	2.185848  
432.000000	2.222295  
432.500000	2.272772  
433.000000	2.317272  
433.500000	2.352651  
434.000000	2.382037  
434.500000	2.432734  
435.000000	2.489053  
435.500000	2.548803  
436.000000	2.572386  
436.500000	2.561553  
437.000000	2.548984  
437.500000	2.572431  
438.000000	2.599515  
438.500000	2.630659  
439.000000	2.647954  
439.500000	2.687356  
440.000000	2.721674  
440.500000	2.751075  
441.000000	2.782325  
441.500000	2.838856  
442.000000	2.893833  
442.500000	2.927750  
443.000000	2.921143  
443.500000	2.913196  
444.000000	2.912068  
444.500000	2.946719  
445.000000	2.993674  
445.500000	3.052121  
446.000000	3.065386  
446.500000	3.082681  
447.000000	3.093530  
447.500000	3.119121  
448.000000	3.107590  
448.500000	3.082515  
449.000000	3.091537  
449.500000	3.142083  
450.000000	3.185560  
450.500000	3.175212  
451.000000	3.156015  
451.500000	3.146878  
452.000000	3.158712  
452.500000	3.163136  
453.000000	3.178189  
453.500000	3.220227  
454.000000	3.261143  
454.500000	3.273121  
455.000000	3.242287  
455.500000	3.205151  
456.000000	3.184666  
456.500000	3.213530  
457.000000	3.272871  
457.500000	3.329575  
458.000000	3.330553  
458.500000	3.292318  
459.000000	3.262840  
459.500000	3.281984  
460.000000	3.323757  
460.500000	3.345310  
461.000000	3.327287  
461.500000	3.295931  
462.000000	3.284363  
462.500000	3.296159  
463.000000	3.312439  
463.500000	3.306606  
464.000000	3.289090  
464.500000	3.285666  
465.000000	3.295681  
465.500000	3.298863  
466.000000	3.301106  
466.500000	3.327431  
467.000000	3.370901  
467.500000	3.385537  
468.000000	3.360143  
468.500000	3.332515  
469.000000	3.333439  
469.500000	3.354916  
470.000000	3.362909  
470.500000	3.360265  
471.000000	3.351727  
471.500000	3.362681  
472.000000	3.378310  
472.500000	3.385280  
473.000000	3.366795  
473.500000	3.356916  
474.000000	3.361303  
474.500000	3.382825  
475.000000	3.407856  
475.500000	3.420409  
476.000000	3.420878  
476.500000	3.396090  
477.000000	3.372522  
477.500000	3.358068  
478.000000	3.369272  
478.500000	3.386000  
479.000000	3.404030  
479.500000	3.402257  
480.000000	3.405871  
480.500000	3.442287  
481.000000	3.485053  
481.500000	3.493545  
482.000000	3.490386  
482.500000	3.502878  
483.000000	3.544931  
483.500000	3.548803  
484.000000	3.523840  
484.500000	3.490780  
485.000000	3.498696  
485.500000	3.513742  
486.000000	3.505492  
486.500000	3.485015  
487.000000	3.456734  
487.500000	3.441416  
488.000000	3.406568  
488.500000	3.407295  
489.000000	3.417106  
489.500000	3.469068  
490.000000	3.486257  
490.500000	3.493954  
491.000000	3.459522  
491.500000	3.427651  
492.000000	3.403136  
492.500000	3.404507  
493.000000	3.394984  
493.500000	3.366053  
494.000000	3.341090  
494.500000	3.335234  
495.000000	3.348090  
495.500000	3.356083  
496.000000	3.375651  
496.500000	3.383621  
497.000000	3.365712  
497.500000	3.314212  
498.000000	3.268939  
498.500000	3.238628  
499.000000	3.228325  
499.500000	3.217939  
500.000000	3.222750  
500.500000	3.219628  
501.000000	3.223696  
501.500000	3.228712  
502.000000	3.231962  
502.500000	3.209651  
503.000000	3.205287  
503.500000	3.230446  
504.000000	3.279174  
504.500000	3.275886  
505.000000	3.221166  
505.500000	3.154704  
506.000000	3.146689  
506.500000	3.180015  
507.000000	3.212810  
507.500000	3.198696  
508.000000	3.143030  
508.500000	3.082060  
509.000000	3.058303  
509.500000	3.063840  
510.000000	3.076128  
510.500000	3.082121  
511.000000	3.079810  
511.500000	3.063348  
512.000000	3.026045  
512.500000	2.981969  
513.000000	2.966083  
513.500000	2.972651  
514.000000	2.994030  
514.500000	3.011075  
515.000000	3.001189  
515.500000	2.981621  
516.000000	2.975856  
516.500000	2.990977  
517.000000	2.992492  
517.500000	2.979628  
518.000000	2.950598  
518.500000	2.939772  
519.000000	2.922454  
519.500000	2.905590  
520.000000	2.884825  
520.500000	2.858818  
521.000000	2.852886  
521.500000	2.869295  
522.000000	2.883507  
522.500000	2.848954  
523.000000	2.802969  
523.500000	2.778446  
524.000000	2.799954  
524.500000	2.829378  
525.000000	2.835515  
525.500000	2.811234  
526.000000	2.771984  
526.500000	2.751583  
527.000000	2.753795  
527.500000	2.755386  
528.000000	2.745333  
528.500000	2.734053  
529.000000	2.735969  
529.500000	2.738530  
530.000000	2.758621  
530.500000	2.762939  
531.000000	2.756401  
531.500000	2.723840  
532.000000	2.686310  
532.500000	2.646287  
533.000000	2.630227  
533.500000	2.640750  
534.000000	2.671916  
534.500000	2.678250  
535.000000	2.650560  
535.500000	2.616416  
536.000000	2.596924  
536.500000	2.586181  
537.000000	2.577666  
537.500000	2.583196  
538.000000	2.612174  
538.500000	2.623136  
539.000000	2.606189  
539.500000	2.591424  
540.000000	2.612446  
540.500000	2.618439  
541.000000	2.592863  
541.500000	2.545318  
542.000000	2.545037  
542.500000	2.569962  
543.000000	2.585303  
543.500000	2.556909  
544.000000	2.522348  
544.500000	2.496999  
545.000000	2.481590  
545.500000	2.451924  
546.000000	2.429803  
546.500000	2.437219  
547.000000	2.461507  
547.500000	2.462401  
548.000000	2.448560  
548.500000	2.437712  
549.000000	2.450621  
549.500000	2.450765  
550.000000	2.437128  
550.500000	2.425765  
551.000000	2.441204  
551.500000	2.443136  
552.000000	2.416045  
552.500000	2.372560  
553.000000	2.352893  
553.500000	2.374613  
554.000000	2.379219  
554.500000	2.359174  
555.000000	2.324719  
555.500000	2.340416  
556.000000	2.364795  
556.500000	2.387386  
557.000000	2.366196  
557.500000	2.357492  
558.000000	2.342560  
558.500000	2.326568  
559.000000	2.297840  
559.500000	2.279856  
560.000000	2.285257  
560.500000	2.309825  
561.000000	2.327916  
561.500000	2.310053  
562.000000	2.289212  
562.500000	2.281356  
563.000000	2.303803  
563.500000	2.306287  
564.000000	2.280946  
564.500000	2.226916  
565.000000	2.199409  
565.500000	2.199106  
566.000000	2.223015  
566.500000	2.230242  
567.000000	2.234969  
567.500000	2.229037  
568.000000	2.197280  
568.500000	2.159181  
569.000000	2.147219  
569.500000	2.166287  
570.000000	2.176825  
570.500000	2.169916  
571.000000	2.167204  
571.500000	2.180742  
572.000000	2.183348  
572.500000	2.152856  
573.000000	2.117151  
573.500000	2.099590  
574.000000	2.124469  
574.500000	2.156393  
575.000000	2.160007  
575.500000	2.114969  
576.000000	2.076174  
576.500000	2.078598  
577.000000	2.119909  
577.500000	2.130712  
578.000000	2.113053  
578.500000	2.096750  
579.000000	2.120863  
579.500000	2.154333  
580.000000	2.178999  

