PE FL                   SPECTRUM    ASCII       PEDS        1.60        
  -1
01#192.SP
02/03/17
05:57:02.00
02/03/17
05:59:38.00


570.000000
1









LS55
600.00
5.00
5.00
SCAN
1
20
100
100
0
100
0
0
0
1
7
ON
700 380 
1 0 0
#HDR
-1
-1
#GR
NM

0.00002384185791015625
0.0
330.000000
0.500000
481
8
4.131257
0.346772
#DATA
330.000000	2.336000 
330.500000	2.394984 
331.000000	2.426143 
331.500000	2.445060 
332.000000	2.438204 
332.500000	2.420446 
333.000000	2.406128 
333.500000	2.429484 
334.000000	2.453780 
334.500000	2.464015 
335.000000	2.468257 
335.500000	2.483000 
336.000000	2.499045 
336.500000	2.506250 
337.000000	2.528484 
337.500000	2.545992 
338.000000	2.556219 
338.500000	2.555931 
339.000000	2.555045 
339.500000	2.548098 
340.000000	2.550053 
340.500000	2.575530 
341.000000	2.607454 
341.500000	2.605090 
342.000000	2.588818 
342.500000	2.585492 
343.000000	2.624121 
343.500000	2.669931 
344.000000	2.716272 
344.500000	2.732909 
345.000000	2.752090 
345.500000	2.756674 
346.000000	2.765333 
346.500000	2.769886 
347.000000	2.783431 
347.500000	2.792507 
348.000000	2.815954 
348.500000	2.833348 
349.000000	2.849863 
349.500000	2.850810 
350.000000	2.859878 
350.500000	2.889522 
351.000000	2.939295 
351.500000	2.978083 
352.000000	3.027757 
352.500000	3.052462 
353.000000	3.058348 
353.500000	3.056553 
354.000000	3.101363 
354.500000	3.165000 
355.000000	3.212424 
355.500000	3.221090 
356.000000	3.223121 
356.500000	3.253037 
357.000000	3.313227 
357.500000	3.377613 
358.000000	3.401659 
358.500000	3.392757 
359.000000	3.391583 
359.500000	3.411750 
360.000000	3.419106 
360.500000	3.433128 
361.000000	3.475416 
361.500000	3.562727 
362.000000	3.610742 
362.500000	3.629477 
363.000000	3.628893 
363.500000	3.672287 
364.000000	3.709878 
364.500000	3.749712 
365.000000	3.779128 
365.500000	3.823522 
366.000000	3.860492 
366.500000	3.883856 
367.000000	3.897651 
367.500000	3.915719 
368.000000	3.939500 
368.500000	3.972462 
369.000000	3.994628 
369.500000	3.999090 
370.000000	3.994386 
370.500000	4.008113 
371.000000	4.042143 
371.500000	4.075409 
372.000000	4.081257 
372.500000	4.089530 
373.000000	4.110606 
373.500000	4.131257 
374.000000	4.127886 
374.500000	4.108174 
375.000000	4.094916 
375.500000	4.077287 
376.000000	4.064045 
376.500000	4.059113 
377.000000	4.077893 
377.500000	4.062242 
378.000000	4.028969 
378.500000	4.002628 
379.000000	4.013454 
379.500000	4.028409 
380.000000	4.022606 
380.500000	3.998606 
381.000000	3.985090 
381.500000	3.990196 
382.000000	3.994257 
382.500000	3.989477 
383.000000	3.971348 
383.500000	3.943696 
384.000000	3.914386 
384.500000	3.906159 
385.000000	3.924409 
385.500000	3.955969 
386.000000	3.968106 
386.500000	3.955734 
387.000000	3.919401 
387.500000	3.875628 
388.000000	3.836696 
388.500000	3.822356 
389.000000	3.819401 
389.500000	3.805666 
390.000000	3.764295 
390.500000	3.707196 
391.000000	3.676348 
391.500000	3.697537 
392.000000	3.756106 
392.500000	3.791431 
393.000000	3.773136 
393.500000	3.702946 
394.000000	3.642318 
394.500000	3.626340 
395.000000	3.658090 
395.500000	3.673818 
396.000000	3.652371 
396.500000	3.610757 
397.000000	3.591121 
397.500000	3.576257 
398.000000	3.555545 
398.500000	3.529901 
399.000000	3.519287 
399.500000	3.493651 
400.000000	3.450787 
400.500000	3.409643 
401.000000	3.397446 
401.500000	3.394303 
402.000000	3.375431 
402.500000	3.347477 
403.000000	3.312159 
403.500000	3.271984 
404.000000	3.232840 
404.500000	3.195431 
405.000000	3.160106 
405.500000	3.126757 
406.000000	3.109106 
406.500000	3.089053 
407.000000	3.061212 
407.500000	3.025189 
408.000000	3.001121 
408.500000	2.987386 
409.000000	2.984121 
409.500000	2.973060 
410.000000	2.926189 
410.500000	2.862507 
411.000000	2.801303 
411.500000	2.757204 
412.000000	2.704462 
412.500000	2.648386 
413.000000	2.603969 
413.500000	2.569750 
414.000000	2.535727 
414.500000	2.495621 
415.000000	2.468689 
415.500000	2.433333 
416.000000	2.404931 
416.500000	2.370878 
417.000000	2.351242 
417.500000	2.331181 
418.000000	2.300765 
418.500000	2.238734 
419.000000	2.163727 
419.500000	2.104378 
420.000000	2.074022 
420.500000	2.059393 
421.000000	2.037015 
421.500000	1.993007 
422.000000	1.944901 
422.500000	1.885840 
423.000000	1.850674 
423.500000	1.837734 
424.000000	1.839045 
424.500000	1.816659 
425.000000	1.776136 
425.500000	1.737651 
426.000000	1.709128 
426.500000	1.663946 
427.000000	1.596303 
427.500000	1.557416 
428.000000	1.545575 
428.500000	1.540295 
429.000000	1.501765 
429.500000	1.448795 
430.000000	1.397962 
430.500000	1.357454 
431.000000	1.329666 
431.500000	1.308090 
432.000000	1.289106 
432.500000	1.252848 
433.000000	1.219007 
433.500000	1.187469 
434.000000	1.174636 
434.500000	1.159477 
435.000000	1.137590 
435.500000	1.088522 
436.000000	1.035257 
436.500000	0.998712 
437.000000	0.993060 
437.500000	0.985803 
438.000000	0.961500 
438.500000	0.931227 
439.000000	0.923992 
439.500000	0.928780 
440.000000	0.923969 
440.500000	0.908378 
441.000000	0.895878 
441.500000	0.877704 
442.000000	0.850568 
442.500000	0.816515 
443.000000	0.792560 
443.500000	0.767530 
444.000000	0.744909 
444.500000	0.719318 
445.000000	0.703999 
445.500000	0.693462 
446.000000	0.687469 
446.500000	0.673636 
447.000000	0.656962 
447.500000	0.640545 
448.000000	0.630939 
448.500000	0.626227 
449.000000	0.624810 
449.500000	0.619780 
450.000000	0.609318 
450.500000	0.595681 
451.000000	0.578674 
451.500000	0.561924 
452.000000	0.543250 
452.500000	0.531704 
453.000000	0.522772 
453.500000	0.520318 
454.000000	0.512030 
454.500000	0.502371 
455.000000	0.495212 
455.500000	0.493143 
456.000000	0.484901 
456.500000	0.469522 
457.000000	0.454166 
457.500000	0.454196 
458.000000	0.468439 
458.500000	0.479045 
459.000000	0.473204 
459.500000	0.456143 
460.000000	0.443583 
460.500000	0.437386 
461.000000	0.435734 
461.500000	0.434106 
462.000000	0.440568 
462.500000	0.439272 
463.000000	0.434750 
463.500000	0.428439 
464.000000	0.434689 
464.500000	0.438749 
465.000000	0.441454 
465.500000	0.434643 
466.000000	0.426651 
466.500000	0.423477 
467.000000	0.429689 
467.500000	0.425287 
468.000000	0.412750 
468.500000	0.403553 
469.000000	0.408083 
469.500000	0.410454 
470.000000	0.411045 
470.500000	0.413863 
471.000000	0.427689 
471.500000	0.429356 
472.000000	0.416954 
472.500000	0.402386 
473.000000	0.396863 
473.500000	0.400007 
474.000000	0.399901 
474.500000	0.397537 
475.000000	0.393393 
475.500000	0.394924 
476.000000	0.398166 
476.500000	0.406053 
477.000000	0.415136 
477.500000	0.420484 
478.000000	0.416553 
478.500000	0.406159 
479.000000	0.403234 
479.500000	0.405886 
480.000000	0.402469 
480.500000	0.389295 
481.000000	0.381106 
481.500000	0.391090 
482.000000	0.409492 
482.500000	0.419659 
483.000000	0.411303 
483.500000	0.402181 
484.000000	0.399613 
484.500000	0.401719 
485.000000	0.395022 
485.500000	0.385060 
486.000000	0.382189 
486.500000	0.385545 
487.000000	0.383515 
487.500000	0.375477 
488.000000	0.371409 
488.500000	0.372431 
489.000000	0.375734 
489.500000	0.379992 
490.000000	0.387537 
490.500000	0.397598 
491.000000	0.404848 
491.500000	0.403636 
492.000000	0.393363 
492.500000	0.383325 
493.000000	0.377931 
493.500000	0.380106 
494.000000	0.386409 
494.500000	0.396015 
495.000000	0.405295 
495.500000	0.414901 
496.000000	0.425151 
496.500000	0.442151 
497.000000	0.459954 
497.500000	0.473689 
498.000000	0.478068 
498.500000	0.477901 
499.000000	0.476098 
499.500000	0.480272 
500.000000	0.482651 
500.500000	0.477053 
501.000000	0.457522 
501.500000	0.437545 
502.000000	0.430053 
502.500000	0.430954 
503.000000	0.421659 
503.500000	0.399636 
504.000000	0.384583 
504.500000	0.382318 
505.000000	0.379303 
505.500000	0.367378 
506.000000	0.362053 
506.500000	0.360871 
507.000000	0.360742 
507.500000	0.354553 
508.000000	0.352522 
508.500000	0.353015 
509.000000	0.358166 
509.500000	0.368454 
510.000000	0.374454 
510.500000	0.374568 
511.000000	0.373333 
511.500000	0.377954 
512.000000	0.371530 
512.500000	0.362159 
513.000000	0.349833 
513.500000	0.349628 
514.000000	0.347189 
514.500000	0.348257 
515.000000	0.347393 
515.500000	0.347363 
516.000000	0.346772 
516.500000	0.350568 
517.000000	0.348477 
517.500000	0.351378 
518.000000	0.368075 
518.500000	0.380772 
519.000000	0.374916 
519.500000	0.359818 
520.000000	0.358439 
520.500000	0.364598 
521.000000	0.361227 
521.500000	0.351568 
522.000000	0.357727 
522.500000	0.371598 
523.000000	0.374840 
523.500000	0.372393 
524.000000	0.372469 
524.500000	0.380174 
525.000000	0.377924 
525.500000	0.368340 
526.000000	0.363643 
526.500000	0.376053 
527.000000	0.396386 
527.500000	0.406818 
528.000000	0.402659 
528.500000	0.384303 
529.000000	0.370401 
529.500000	0.363613 
530.000000	0.373643 
530.500000	0.390303 
531.000000	0.405787 
531.500000	0.402083 
532.000000	0.395750 
532.500000	0.395886 
533.000000	0.401893 
533.500000	0.394075 
534.000000	0.384363 
534.500000	0.386310 
535.000000	0.402424 
535.500000	0.410522 
536.000000	0.410325 
536.500000	0.414560 
537.000000	0.429356 
537.500000	0.439946 
538.000000	0.430856 
538.500000	0.414863 
539.000000	0.419780 
539.500000	0.452984 
540.000000	0.476318 
540.500000	0.477643 
541.000000	0.464803 
541.500000	0.466606 
542.000000	0.474431 
542.500000	0.482477 
543.000000	0.485280 
543.500000	0.488825 
544.000000	0.499598 
544.500000	0.509916 
545.000000	0.519992 
545.500000	0.514969 
546.000000	0.514712 
546.500000	0.522204 
547.000000	0.539803 
547.500000	0.546856 
548.000000	0.547083 
548.500000	0.547712 
549.000000	0.561053 
549.500000	0.578765 
550.000000	0.587621 
550.500000	0.582757 
551.000000	0.576325 
551.500000	0.577712 
552.000000	0.601121 
552.500000	0.631659 
553.000000	0.648727 
553.500000	0.645651 
554.000000	0.641363 
554.500000	0.663969 
555.000000	0.695833 
555.500000	0.714363 
556.000000	0.697689 
556.500000	0.681045 
557.000000	0.676348 
557.500000	0.702469 
558.000000	0.729060 
558.500000	0.758712 
559.000000	0.774151 
559.500000	0.780606 
560.000000	0.775992 
560.500000	0.784931 
561.000000	0.794742 
561.500000	0.799803 
562.000000	0.793848 
562.500000	0.788060 
563.000000	0.786265 
563.500000	0.778000 
564.000000	0.786083 
564.500000	0.796946 
565.000000	0.812500 
565.500000	0.811598 
566.000000	0.834295 
566.500000	0.871075 
567.000000	0.913121 
567.500000	0.939303 
568.000000	0.961416 
568.500000	0.979628 
569.000000	0.979810 
569.500000	0.972530 
570.000000	0.966999 

