PE FL                   SPECTRUM    ASCII       PEDS        1.60        
  -1
01#191.SP
02/03/17
05:53:08.00
02/03/17
05:56:17.00


700.000000
1









LS55
380.00
5.00
5.00
SCAN
1
20
100
100
0
100
0
1
0
1
7
ON
500 470 
1 0 0
#HDR
-1
-1
#GR
NM

0.00002384185791015625
0.0
400.000000
0.500000
601
8
6.338121
0.421734
#DATA
400.000000	0.435000 
400.500000	0.421734 
401.000000	0.428848 
401.500000	0.448500 
402.000000	0.465818 
402.500000	0.467515 
403.000000	0.466772 
403.500000	0.474325 
404.000000	0.499931 
404.500000	0.536257 
405.000000	0.568128 
405.500000	0.589219 
406.000000	0.596189 
406.500000	0.602568 
407.000000	0.616287 
407.500000	0.642022 
408.000000	0.660598 
408.500000	0.672575 
409.000000	0.690909 
409.500000	0.726303 
410.000000	0.763621 
410.500000	0.784227 
411.000000	0.790772 
411.500000	0.803727 
412.000000	0.832810 
412.500000	0.868128 
413.000000	0.900143 
413.500000	0.926325 
414.000000	0.950204 
414.500000	0.980848 
415.000000	1.020545 
415.500000	1.066659 
416.000000	1.093424 
416.500000	1.111613 
417.000000	1.144840 
417.500000	1.214454 
418.000000	1.279522 
418.500000	1.312681 
419.000000	1.337742 
419.500000	1.384590 
420.000000	1.441840 
420.500000	1.487750 
421.000000	1.527143 
421.500000	1.584674 
422.000000	1.649628 
422.500000	1.708090 
423.000000	1.754212 
423.500000	1.803984 
424.000000	1.844113 
424.500000	1.884257 
425.000000	1.941083 
425.500000	2.014409 
426.000000	2.078984 
426.500000	2.124386 
427.000000	2.172734 
427.500000	2.226515 
428.000000	2.279643 
428.500000	2.316568 
429.000000	2.353568 
429.500000	2.398121 
430.000000	2.448727 
430.500000	2.498803 
431.000000	2.547159 
431.500000	2.613598 
432.000000	2.700227 
432.500000	2.796393 
433.000000	2.868545 
433.500000	2.933946 
434.000000	2.987045 
434.500000	3.039545 
435.000000	3.092325 
435.500000	3.150833 
436.000000	3.205469 
436.500000	3.265030 
437.000000	3.343954 
437.500000	3.435674 
438.000000	3.509045 
438.500000	3.548234 
439.000000	3.591007 
439.500000	3.640545 
440.000000	3.704893 
440.500000	3.766530 
441.000000	3.820000 
441.500000	3.847946 
442.000000	3.888742 
442.500000	3.929537 
443.000000	3.972499 
443.500000	4.004325 
444.000000	4.051893 
444.500000	4.127590 
445.000000	4.209128 
445.500000	4.270818 
446.000000	4.307621 
446.500000	4.352166 
447.000000	4.428333 
447.500000	4.519295 
448.000000	4.561295 
448.500000	4.542734 
449.000000	4.542045 
449.500000	4.569060 
450.000000	4.613227 
450.500000	4.613212 
451.000000	4.658265 
451.500000	4.714280 
452.000000	4.784992 
452.500000	4.797159 
453.000000	4.843719 
453.500000	4.919583 
454.000000	5.013348 
454.500000	5.042712 
455.000000	5.033621 
455.500000	5.024522 
456.000000	5.044196 
456.500000	5.061234 
457.000000	5.083242 
457.500000	5.110045 
458.000000	5.159833 
458.500000	5.209719 
459.000000	5.274909 
459.500000	5.307128 
460.000000	5.303969 
460.500000	5.286553 
461.000000	5.309484 
461.500000	5.351606 
462.000000	5.366098 
462.500000	5.358333 
463.000000	5.366287 
463.500000	5.426560 
464.000000	5.480143 
464.500000	5.512053 
465.000000	5.517053 
465.500000	5.525590 
466.000000	5.531151 
466.500000	5.543310 
467.000000	5.553446 
467.500000	5.572348 
468.000000	5.585068 
468.500000	5.580492 
469.000000	5.603765 
469.500000	5.634060 
470.000000	5.660037 
470.500000	5.655537 
471.000000	5.685704 
471.500000	5.733401 
472.000000	5.781515 
472.500000	5.783500 
473.000000	5.774446 
473.500000	5.793606 
474.000000	5.831477 
474.500000	5.858295 
475.000000	5.859719 
475.500000	5.886984 
476.000000	5.941583 
476.500000	5.995371 
477.000000	6.004765 
477.500000	5.987204 
478.000000	5.992560 
478.500000	5.995568 
479.000000	5.991219 
479.500000	6.006386 
480.000000	6.042750 
480.500000	6.072159 
481.000000	6.069712 
481.500000	6.099537 
482.000000	6.149840 
482.500000	6.180143 
483.000000	6.143227 
483.500000	6.147090 
484.000000	6.197893 
484.500000	6.281742 
485.000000	6.317037 
485.500000	6.321166 
486.000000	6.309333 
486.500000	6.291742 
487.000000	6.277787 
487.500000	6.291803 
488.000000	6.303901 
488.500000	6.274257 
489.000000	6.224590 
489.500000	6.193954 
490.000000	6.219287 
490.500000	6.254560 
491.000000	6.280446 
491.500000	6.298492 
492.000000	6.330242 
492.500000	6.338121 
493.000000	6.324810 
493.500000	6.291416 
494.000000	6.258446 
494.500000	6.224424 
495.000000	6.216083 
495.500000	6.254499 
496.000000	6.303136 
496.500000	6.313462 
497.000000	6.266969 
497.500000	6.223901 
498.000000	6.204636 
498.500000	6.202030 
499.000000	6.195833 
499.500000	6.174431 
500.000000	6.164666 
500.500000	6.162537 
501.000000	6.166348 
501.500000	6.153083 
502.000000	6.143810 
502.500000	6.119651 
503.000000	6.102545 
503.500000	6.100446 
504.000000	6.133113 
504.500000	6.141568 
505.000000	6.111348 
505.500000	6.052007 
506.000000	6.041833 
506.500000	6.043075 
507.000000	6.058424 
507.500000	6.051227 
508.000000	6.047765 
508.500000	6.002553 
509.000000	5.943196 
509.500000	5.914462 
510.000000	5.931340 
510.500000	5.947265 
511.000000	5.942454 
511.500000	5.950674 
512.000000	5.965553 
512.500000	5.955113 
513.000000	5.908280 
513.500000	5.872742 
514.000000	5.850439 
514.500000	5.820689 
515.000000	5.788409 
515.500000	5.806234 
516.000000	5.846113 
516.500000	5.871825 
517.000000	5.852659 
517.500000	5.818469 
518.000000	5.798106 
518.500000	5.786227 
519.000000	5.767053 
519.500000	5.747575 
520.000000	5.732643 
520.500000	5.742803 
521.000000	5.730727 
521.500000	5.692757 
522.000000	5.611916 
522.500000	5.580712 
523.000000	5.560477 
523.500000	5.607575 
524.000000	5.652469 
524.500000	5.697765 
525.000000	5.657818 
525.500000	5.588553 
526.000000	5.533643 
526.500000	5.537621 
527.000000	5.537121 
527.500000	5.535136 
528.000000	5.544378 
528.500000	5.546636 
529.000000	5.519401 
529.500000	5.500431 
530.000000	5.519356 
530.500000	5.559515 
531.000000	5.563507 
531.500000	5.534871 
532.000000	5.512204 
532.500000	5.513704 
533.000000	5.503681 
533.500000	5.463613 
534.000000	5.412500 
534.500000	5.380856 
535.000000	5.365310 
535.500000	5.349590 
536.000000	5.337901 
536.500000	5.337522 
537.000000	5.328363 
537.500000	5.298757 
538.000000	5.246840 
538.500000	5.190310 
539.000000	5.169333 
539.500000	5.217174 
540.000000	5.284356 
540.500000	5.295636 
541.000000	5.255636 
541.500000	5.207704 
542.000000	5.200000 
542.500000	5.202787 
543.000000	5.203484 
543.500000	5.178128 
544.000000	5.170159 
544.500000	5.170098 
545.000000	5.170780 
545.500000	5.136992 
546.000000	5.087651 
546.500000	5.058068 
547.000000	5.039166 
547.500000	5.035833 
548.000000	5.031242 
548.500000	5.046227 
549.000000	5.040439 
549.500000	5.031469 
550.000000	5.009530 
550.500000	5.007000 
551.000000	5.003848 
551.500000	4.994575 
552.000000	4.984484 
552.500000	4.988674 
553.000000	4.996439 
553.500000	4.965363 
554.000000	4.926378 
554.500000	4.907568 
555.000000	4.916348 
555.500000	4.922969 
556.000000	4.917825 
556.500000	4.915500 
557.000000	4.905318 
557.500000	4.885446 
558.000000	4.844825 
558.500000	4.824681 
559.000000	4.810583 
559.500000	4.797492 
560.000000	4.769765 
560.500000	4.762621 
561.000000	4.776295 
561.500000	4.800484 
562.000000	4.813431 
562.500000	4.795204 
563.000000	4.757878 
563.500000	4.700727 
564.000000	4.661204 
564.500000	4.635348 
565.000000	4.627916 
565.500000	4.633045 
566.000000	4.663621 
566.500000	4.690053 
567.000000	4.684689 
567.500000	4.684401 
568.000000	4.687984 
568.500000	4.690098 
569.000000	4.655522 
569.500000	4.624969 
570.000000	4.622265 
570.500000	4.652348 
571.000000	4.649265 
571.500000	4.617598 
572.000000	4.567015 
572.500000	4.545931 
573.000000	4.537272 
573.500000	4.543803 
574.000000	4.513287 
574.500000	4.484356 
575.000000	4.462643 
575.500000	4.474068 
576.000000	4.472606 
576.500000	4.445454 
577.000000	4.398568 
577.500000	4.384113 
578.000000	4.390628 
578.500000	4.383977 
579.000000	4.361303 
579.500000	4.325219 
580.000000	4.304045 
580.500000	4.303886 
581.000000	4.319666 
581.500000	4.335431 
582.000000	4.331515 
582.500000	4.307318 
583.000000	4.265704 
583.500000	4.251204 
584.000000	4.258515 
584.500000	4.303749 
585.000000	4.325848 
585.500000	4.325939 
586.000000	4.293984 
586.500000	4.260454 
587.000000	4.225537 
587.500000	4.209295 
588.000000	4.204939 
588.500000	4.179719 
589.000000	4.150621 
589.500000	4.145431 
590.000000	4.186325 
590.500000	4.220242 
591.000000	4.208000 
591.500000	4.152196 
592.000000	4.100409 
592.500000	4.058181 
593.000000	4.035265 
593.500000	4.022750 
594.000000	4.002431 
594.500000	3.981583 
595.000000	3.976742 
595.500000	3.980598 
596.000000	3.967848 
596.500000	3.953378 
597.000000	3.973143 
597.500000	4.018621 
598.000000	4.018856 
598.500000	3.966909 
599.000000	3.920643 
599.500000	3.915204 
600.000000	3.920939 
600.500000	3.901939 
601.000000	3.868227 
601.500000	3.828189 
602.000000	3.801560 
602.500000	3.803113 
603.000000	3.837113 
603.500000	3.871651 
604.000000	3.861530 
604.500000	3.802696 
605.000000	3.735454 
605.500000	3.707946 
606.000000	3.715189 
606.500000	3.737121 
607.000000	3.720598 
607.500000	3.682143 
608.000000	3.625977 
608.500000	3.584189 
609.000000	3.557598 
609.500000	3.587106 
610.000000	3.634560 
610.500000	3.664196 
611.000000	3.633053 
611.500000	3.575833 
612.000000	3.529613 
612.500000	3.514234 
613.000000	3.518848 
613.500000	3.518537 
614.000000	3.495530 
614.500000	3.450424 
615.000000	3.406992 
615.500000	3.380856 
616.000000	3.364060 
616.500000	3.342901 
617.000000	3.322204 
617.500000	3.311568 
618.000000	3.300022 
618.500000	3.282553 
619.000000	3.269553 
619.500000	3.261962 
620.000000	3.264257 
620.500000	3.245939 
621.000000	3.234446 
621.500000	3.206651 
622.000000	3.180575 
622.500000	3.153409 
623.000000	3.148818 
623.500000	3.128287 
624.000000	3.099219 
624.500000	3.065871 
625.000000	3.061810 
625.500000	3.060757 
626.000000	3.046909 
626.500000	3.022704 
627.000000	2.998916 
627.500000	2.975106 
628.000000	2.957621 
628.500000	2.937833 
629.000000	2.905719 
629.500000	2.868757 
630.000000	2.836651 
630.500000	2.818371 
631.000000	2.799583 
631.500000	2.776219 
632.000000	2.745431 
632.500000	2.717833 
633.000000	2.702106 
633.500000	2.695545 
634.000000	2.677757 
634.500000	2.665643 
635.000000	2.656984 
635.500000	2.662643 
636.000000	2.631863 
636.500000	2.593750 
637.000000	2.562060 
637.500000	2.558371 
638.000000	2.545696 
638.500000	2.532280 
639.000000	2.514174 
639.500000	2.508265 
640.000000	2.488613 
640.500000	2.446128 
641.000000	2.397575 
641.500000	2.375196 
642.000000	2.372159 
642.500000	2.367992 
643.000000	2.343666 
643.500000	2.343946 
644.000000	2.367287 
644.500000	2.378219 
645.000000	2.342810 
645.500000	2.289636 
646.000000	2.256863 
646.500000	2.252621 
647.000000	2.249871 
647.500000	2.229893 
648.000000	2.195803 
648.500000	2.165265 
649.000000	2.150969 
649.500000	2.142507 
650.000000	2.122371 
650.500000	2.088984 
651.000000	2.052265 
651.500000	2.019340 
652.000000	1.999825 
652.500000	1.999772 
653.000000	2.001803 
653.500000	1.988439 
654.000000	1.974113 
654.500000	1.963053 
655.000000	1.949310 
655.500000	1.919787 
656.000000	1.882704 
656.500000	1.861954 
657.000000	1.859090 
657.500000	1.854613 
658.000000	1.832143 
658.500000	1.810143 
659.000000	1.797280 
659.500000	1.786037 
660.000000	1.762090 
660.500000	1.738090 
661.000000	1.732265 
661.500000	1.711469 
662.000000	1.684742 
662.500000	1.666666 
663.000000	1.677257 
663.500000	1.682636 
664.000000	1.683166 
664.500000	1.660515 
665.000000	1.615401 
665.500000	1.544992 
666.000000	1.499219 
666.500000	1.497492 
667.000000	1.520818 
667.500000	1.528848 
668.000000	1.522363 
668.500000	1.515424 
669.000000	1.504106 
669.500000	1.483712 
670.000000	1.457750 
670.500000	1.454143 
671.000000	1.456886 
671.500000	1.454674 
672.000000	1.432507 
672.500000	1.418295 
673.000000	1.398462 
673.500000	1.374931 
674.000000	1.327992 
674.500000	1.290234 
675.000000	1.259734 
675.500000	1.264893 
676.000000	1.282151 
676.500000	1.293628 
677.000000	1.272204 
677.500000	1.238098 
678.000000	1.210969 
678.500000	1.193719 
679.000000	1.175954 
679.500000	1.160909 
680.000000	1.159295 
680.500000	1.170681 
681.000000	1.174825 
681.500000	1.162121 
682.000000	1.137409 
682.500000	1.121651 
683.000000	1.112871 
683.500000	1.104886 
684.000000	1.086560 
684.500000	1.060219 
685.000000	1.033628 
685.500000	1.024750 
686.000000	1.022553 
686.500000	1.017553 
687.000000	1.007121 
687.500000	1.010598 
688.000000	1.021871 
688.500000	1.009037 
689.000000	0.979121 
689.500000	0.954303 
690.000000	0.957386 
690.500000	0.954431 
691.000000	0.939878 
691.500000	0.914409 
692.000000	0.897878 
692.500000	0.882393 
693.000000	0.868954 
693.500000	0.866401 
694.000000	0.868863 
694.500000	0.861022 
695.000000	0.843098 
695.500000	0.831424 
696.000000	0.832325 
696.500000	0.826553 
697.000000	0.806651 
697.500000	0.792803 
698.000000	0.800280 
698.500000	0.809196 
699.000000	0.798500 
699.500000	0.782568 
700.000000	0.778999 

