PE FL                   SPECTRUM    ASCII       PEDS        1.60        
  -1
01#194.SP
02/03/17
06:03:03.00
02/03/17
06:04:57.00


390.000000
1









LS55
420.00
5.00
5.00
SCAN
1
20
100
100
0
100
0
0
0
1
7
ON
470 500 
1 0 0
#HDR
-1
-1
#GR
NM

0.00002384185791015625
0.0
220.000000
0.500000
341
8
1.900628
0.146000
#DATA
220.000000	0.146000 
220.500000	0.217340 
221.000000	0.262689 
221.500000	0.257840 
222.000000	0.240946 
222.500000	0.227954 
223.000000	0.241712 
223.500000	0.252136 
224.000000	0.253871 
224.500000	0.250265 
225.000000	0.255568 
225.500000	0.272386 
226.000000	0.291939 
226.500000	0.332295 
227.000000	0.351553 
227.500000	0.353537 
228.000000	0.331840 
228.500000	0.320848 
229.000000	0.309681 
229.500000	0.302818 
230.000000	0.301151 
230.500000	0.294992 
231.000000	0.285015 
231.500000	0.280992 
232.000000	0.291234 
232.500000	0.306060 
233.000000	0.314636 
233.500000	0.320666 
234.000000	0.317015 
234.500000	0.310931 
235.000000	0.303583 
235.500000	0.313613 
236.000000	0.336530 
236.500000	0.359181 
237.000000	0.353325 
237.500000	0.302000 
238.000000	0.268212 
238.500000	0.286045 
239.000000	0.343409 
239.500000	0.347000 
240.000000	0.308318 
240.500000	0.266969 
241.000000	0.272689 
241.500000	0.295053 
242.000000	0.311060 
242.500000	0.306090 
243.000000	0.291742 
243.500000	0.288575 
244.000000	0.302992 
244.500000	0.318250 
245.000000	0.313553 
245.500000	0.302613 
246.000000	0.306727 
246.500000	0.317378 
247.000000	0.317363 
247.500000	0.297909 
248.000000	0.279522 
248.500000	0.274272 
249.000000	0.279992 
249.500000	0.294833 
250.000000	0.303030 
250.500000	0.311287 
251.000000	0.327356 
251.500000	0.340727 
252.000000	0.327045 
252.500000	0.302772 
253.000000	0.303469 
253.500000	0.332090 
254.000000	0.352303 
254.500000	0.353189 
255.000000	0.368810 
255.500000	0.396227 
256.000000	0.404522 
256.500000	0.385128 
257.000000	0.363181 
257.500000	0.366424 
258.000000	0.387401 
258.500000	0.399363 
259.000000	0.391583 
259.500000	0.376666 
260.000000	0.370227 
260.500000	0.374750 
261.000000	0.377409 
261.500000	0.379992 
262.000000	0.386984 
262.500000	0.396113 
263.000000	0.404946 
263.500000	0.415628 
264.000000	0.434712 
264.500000	0.449734 
265.000000	0.451878 
265.500000	0.441333 
266.000000	0.440462 
266.500000	0.448681 
267.000000	0.465598 
267.500000	0.469250 
268.000000	0.469189 
268.500000	0.468242 
269.000000	0.482545 
269.500000	0.491598 
270.000000	0.491659 
270.500000	0.477265 
271.000000	0.471621 
271.500000	0.478303 
272.000000	0.494166 
272.500000	0.502484 
273.000000	0.487613 
273.500000	0.462939 
274.000000	0.452075 
274.500000	0.463318 
275.000000	0.472371 
275.500000	0.466265 
276.000000	0.462348 
276.500000	0.469674 
277.000000	0.491090 
277.500000	0.501863 
278.000000	0.494795 
278.500000	0.470621 
279.000000	0.468037 
279.500000	0.472825 
280.000000	0.486401 
280.500000	0.484666 
281.000000	0.491742 
281.500000	0.498113 
282.000000	0.507113 
282.500000	0.510469 
283.000000	0.514083 
283.500000	0.503090 
284.000000	0.478886 
284.500000	0.471840 
285.000000	0.474621 
285.500000	0.486053 
286.000000	0.470136 
286.500000	0.446560 
287.000000	0.430219 
287.500000	0.442507 
288.000000	0.449265 
288.500000	0.446083 
289.000000	0.436227 
289.500000	0.439136 
290.000000	0.445893 
290.500000	0.441992 
291.000000	0.425037 
291.500000	0.407492 
292.000000	0.402545 
292.500000	0.411022 
293.000000	0.427045 
293.500000	0.437613 
294.000000	0.450371 
294.500000	0.467856 
295.000000	0.488621 
295.500000	0.504840 
296.000000	0.519007 
296.500000	0.532030 
297.000000	0.557871 
297.500000	0.595037 
298.000000	0.634818 
298.500000	0.667643 
299.000000	0.708893 
299.500000	0.771734 
300.000000	0.854962 
300.500000	0.929106 
301.000000	0.981060 
301.500000	1.017893 
302.000000	1.056848 
302.500000	1.113454 
303.000000	1.182931 
303.500000	1.257477 
304.000000	1.313318 
304.500000	1.354143 
305.000000	1.369378 
305.500000	1.378969 
306.000000	1.390348 
306.500000	1.425181 
307.000000	1.461371 
307.500000	1.485772 
308.000000	1.489825 
308.500000	1.489500 
309.000000	1.482083 
309.500000	1.482060 
310.000000	1.483424 
310.500000	1.486606 
311.000000	1.463590 
311.500000	1.434234 
312.000000	1.396674 
312.500000	1.371613 
313.000000	1.352227 
313.500000	1.344106 
314.000000	1.325272 
314.500000	1.296409 
315.000000	1.280462 
315.500000	1.279234 
316.000000	1.281045 
316.500000	1.269863 
317.000000	1.245030 
317.500000	1.208856 
318.000000	1.169810 
318.500000	1.147507 
319.000000	1.143537 
319.500000	1.169378 
320.000000	1.197507 
320.500000	1.214681 
321.000000	1.190227 
321.500000	1.162954 
322.000000	1.145166 
322.500000	1.144053 
323.000000	1.134439 
323.500000	1.125575 
324.000000	1.122598 
324.500000	1.132174 
325.000000	1.140371 
325.500000	1.152500 
326.000000	1.172643 
326.500000	1.192840 
327.000000	1.196863 
327.500000	1.175083 
328.000000	1.150681 
328.500000	1.150606 
329.000000	1.172643 
329.500000	1.196469 
330.000000	1.215030 
330.500000	1.226113 
331.000000	1.229090 
331.500000	1.227977 
332.000000	1.231515 
332.500000	1.252242 
333.000000	1.277856 
333.500000	1.291643 
334.000000	1.286227 
334.500000	1.286765 
335.000000	1.312424 
335.500000	1.354909 
336.000000	1.382780 
336.500000	1.381613 
337.000000	1.369946 
337.500000	1.379734 
338.000000	1.410500 
338.500000	1.439098 
339.000000	1.443878 
339.500000	1.432916 
340.000000	1.430431 
340.500000	1.444969 
341.000000	1.474681 
341.500000	1.504780 
342.000000	1.525136 
342.500000	1.523734 
343.000000	1.513931 
343.500000	1.502765 
344.000000	1.505363 
344.500000	1.518090 
345.000000	1.545522 
345.500000	1.584446 
346.000000	1.616878 
346.500000	1.632303 
347.000000	1.638939 
347.500000	1.650143 
348.000000	1.656742 
348.500000	1.659265 
349.000000	1.669537 
349.500000	1.700166 
350.000000	1.737166 
350.500000	1.761643 
351.000000	1.757265 
351.500000	1.732257 
352.000000	1.719431 
352.500000	1.734189 
353.000000	1.769560 
353.500000	1.781651 
354.000000	1.777219 
354.500000	1.782954 
355.000000	1.800575 
355.500000	1.814507 
356.000000	1.822030 
356.500000	1.832901 
357.000000	1.846060 
357.500000	1.848174 
358.000000	1.832121 
358.500000	1.831810 
359.000000	1.849977 
359.500000	1.880765 
360.000000	1.900628 
360.500000	1.898121 
361.000000	1.895371 
361.500000	1.898568 
362.000000	1.900007 
362.500000	1.884878 
363.000000	1.869659 
363.500000	1.872022 
364.000000	1.885242 
364.500000	1.877515 
365.000000	1.860863 
365.500000	1.858015 
366.000000	1.850151 
366.500000	1.838053 
367.000000	1.840651 
367.500000	1.857878 
368.000000	1.853712 
368.500000	1.814659 
369.000000	1.788272 
369.500000	1.795545 
370.000000	1.821651 
370.500000	1.829750 
371.000000	1.818696 
371.500000	1.789265 
372.000000	1.749840 
372.500000	1.714393 
373.000000	1.684121 
373.500000	1.647765 
374.000000	1.610689 
374.500000	1.598924 
375.000000	1.621462 
375.500000	1.637242 
376.000000	1.621780 
376.500000	1.578393 
377.000000	1.545590 
377.500000	1.528431 
378.000000	1.511212 
378.500000	1.495825 
379.000000	1.490325 
379.500000	1.497151 
380.000000	1.485363 
380.500000	1.468356 
381.000000	1.439037 
381.500000	1.422553 
382.000000	1.396204 
382.500000	1.365583 
383.000000	1.330560 
383.500000	1.311825 
384.000000	1.307515 
384.500000	1.307090 
385.000000	1.290522 
385.500000	1.266598 
386.000000	1.249613 
386.500000	1.241037 
387.000000	1.222265 
387.500000	1.202606 
388.000000	1.192007 
388.500000	1.197507 
389.000000	1.195606 
389.500000	1.167060 
390.000000	1.107000 

