PE FL                   SPECTRUM    ASCII       PEDS        1.60        
  -1
01#195.SP
02/03/17
06:05:29.00
02/03/17
06:07:55.00


530.000000
1









LS55
280.00
5.00
5.00
SCAN
1
20
100
100
0
100
0
1
0
1
7
ON
420 390 
1 0 0
#HDR
-1
-1
#GR
NM

0.00002384185791015625
0.0
300.000000
0.500000
461
8
1.655916
-0.001075
#DATA
300.000000	-0.001000 
300.500000	0.007378  
301.000000	0.012727  
301.500000	0.013340  
302.000000	0.010969  
302.500000	0.006393  
303.000000	0.004136  
303.500000	0.003833  
304.000000	0.005590  
304.500000	0.007310  
305.000000	0.009015  
305.500000	0.009204  
306.000000	0.006606  
306.500000	0.004204  
307.000000	0.004621  
307.500000	0.007575  
308.000000	0.007492  
308.500000	0.004954  
309.000000	0.001765  
309.500000	0.004522  
310.000000	0.009378  
310.500000	0.012651  
311.000000	0.009007  
311.500000	0.004613  
312.000000	0.001098  
312.500000	0.002575  
313.000000	0.005590  
313.500000	0.009500  
314.000000	0.011000  
314.500000	0.008886  
315.000000	0.005795  
315.500000	0.003098  
316.000000	0.002522  
316.500000	0.002575  
317.000000	0.004318  
317.500000	0.004477  
318.000000	0.003401  
318.500000	0.001128  
319.000000	-0.000030 
319.500000	-0.000363 
320.000000	-0.000409 
320.500000	0.000795  
321.000000	0.003257  
321.500000	0.006439  
322.000000	0.006833  
322.500000	0.007204  
323.000000	0.008166  
323.500000	0.009606  
324.000000	0.007121  
324.500000	0.002893  
325.000000	-0.000424 
325.500000	-0.001075 
326.000000	0.000636  
326.500000	0.004969  
327.000000	0.009030  
327.500000	0.008386  
328.000000	0.004166  
328.500000	0.002712  
329.000000	0.004242  
329.500000	0.004810  
330.000000	0.003325  
330.500000	0.003439  
331.000000	0.006075  
331.500000	0.007060  
332.000000	0.006734  
332.500000	0.005045  
333.000000	0.004068  
333.500000	0.002318  
334.000000	0.001780  
334.500000	0.002030  
335.000000	0.002515  
335.500000	0.002787  
336.000000	0.002446  
336.500000	0.002242  
337.000000	0.000916  
337.500000	0.000090  
338.000000	-0.000651 
338.500000	0.000916  
339.000000	0.003606  
339.500000	0.005590  
340.000000	0.004348  
340.500000	0.001583  
341.000000	-0.000272 
341.500000	-0.000242 
342.000000	0.000000  
342.500000	0.000000  
343.000000	0.000000  
343.500000	0.000000  
344.000000	0.000000  
344.500000	0.000000  
345.000000	0.000000  
345.500000	0.000000  
346.000000	0.000000  
346.500000	0.000000  
347.000000	0.000000  
347.500000	0.000000  
348.000000	0.000000  
348.500000	0.000000  
349.000000	-0.000121 
349.500000	-0.000348 
350.000000	0.001030  
350.500000	0.002886  
351.000000	0.004606  
351.500000	0.003848  
352.000000	0.002454  
352.500000	0.000674  
353.000000	0.000212  
353.500000	-0.000242 
354.000000	-0.000060 
354.500000	-0.000174 
355.000000	0.000545  
355.500000	0.001530  
356.000000	0.002030  
356.500000	0.001159  
357.000000	0.000212  
357.500000	-0.000242 
358.000000	-0.000060 
358.500000	-0.000174 
359.000000	0.000545  
359.500000	0.001469  
360.000000	0.001856  
360.500000	0.001704  
361.000000	0.001742  
361.500000	0.001787  
362.000000	0.001159  
362.500000	0.000212  
363.000000	-0.000303 
363.500000	-0.000174 
364.000000	0.000545  
364.500000	0.001530  
365.000000	0.002030  
365.500000	0.001159  
366.000000	0.000151  
366.500000	-0.000537 
367.000000	0.000136  
367.500000	0.002446  
368.000000	0.005636  
368.500000	0.006689  
369.000000	0.004386  
369.500000	0.001886  
370.000000	0.001257  
370.500000	0.001787  
371.000000	0.001098  
371.500000	0.000037  
372.000000	0.000303  
372.500000	0.001530  
373.000000	0.002030  
373.500000	0.001159  
374.000000	0.000212  
374.500000	-0.000242 
375.000000	0.000000  
375.500000	0.000000  
376.000000	0.000000  
376.500000	-0.000060 
377.000000	-0.000295 
377.500000	0.000196  
378.000000	0.002378  
378.500000	0.004575  
379.000000	0.006651  
379.500000	0.007477  
380.000000	0.010469  
380.500000	0.011356  
381.000000	0.010022  
381.500000	0.006121  
382.000000	0.007613  
382.500000	0.009939  
383.000000	0.012886  
383.500000	0.019446  
384.000000	0.027128  
384.500000	0.034166  
385.000000	0.031681  
385.500000	0.027606  
386.000000	0.022325  
386.500000	0.026287  
387.000000	0.028840  
387.500000	0.032098  
388.000000	0.029037  
388.500000	0.032530  
389.000000	0.042780  
389.500000	0.058272  
390.000000	0.061916  
390.500000	0.054886  
391.000000	0.041924  
391.500000	0.039174  
392.000000	0.047492  
392.500000	0.057840  
393.000000	0.063856  
393.500000	0.070803  
394.000000	0.079090  
394.500000	0.081340  
395.000000	0.077962  
395.500000	0.072681  
396.000000	0.081469  
396.500000	0.105189  
397.000000	0.123234  
397.500000	0.118992  
398.000000	0.107689  
398.500000	0.113439  
399.000000	0.135500  
399.500000	0.145787  
400.000000	0.140613  
400.500000	0.136583  
401.000000	0.148030  
401.500000	0.167378  
402.000000	0.180189  
402.500000	0.185204  
403.000000	0.186803  
403.500000	0.201393  
404.000000	0.210151  
404.500000	0.211795  
405.000000	0.200606  
405.500000	0.202575  
406.000000	0.223090  
406.500000	0.251348  
407.000000	0.265856  
407.500000	0.262371  
408.000000	0.254840  
408.500000	0.248340  
409.000000	0.243545  
409.500000	0.246007  
410.000000	0.259962  
410.500000	0.285416  
411.000000	0.298204  
411.500000	0.306583  
412.000000	0.309416  
412.500000	0.317287  
413.000000	0.323886  
413.500000	0.336356  
414.000000	0.348189  
414.500000	0.356462  
415.000000	0.362401  
415.500000	0.371189  
416.000000	0.382348  
416.500000	0.390280  
417.000000	0.399984  
417.500000	0.411863  
418.000000	0.427878  
418.500000	0.450765  
419.000000	0.470257  
419.500000	0.474121  
420.000000	0.466060  
420.500000	0.469280  
421.000000	0.487181  
421.500000	0.509545  
422.000000	0.519537  
422.500000	0.529977  
423.000000	0.545659  
423.500000	0.567757  
424.000000	0.589848  
424.500000	0.607696  
425.000000	0.613431  
425.500000	0.609628  
426.000000	0.612159  
426.500000	0.630340  
427.000000	0.642462  
427.500000	0.646310  
428.000000	0.649590  
428.500000	0.667651  
429.000000	0.674151  
429.500000	0.677946  
430.000000	0.694250  
430.500000	0.727143  
431.000000	0.740015  
431.500000	0.741522  
432.000000	0.754219  
432.500000	0.761507  
433.000000	0.763325  
433.500000	0.760727  
434.000000	0.778598  
434.500000	0.793931  
435.000000	0.812128  
435.500000	0.824272  
436.000000	0.851507  
436.500000	0.882553  
437.000000	0.928151  
437.500000	0.947621  
438.000000	0.925696  
438.500000	0.897454  
439.000000	0.910621  
439.500000	0.948742  
440.000000	0.976416  
440.500000	0.982606  
441.000000	0.991893  
441.500000	1.008803  
442.000000	1.027340  
442.500000	1.032090  
443.000000	1.029098  
443.500000	1.026515  
444.000000	1.044590  
444.500000	1.075969  
445.000000	1.105750  
445.500000	1.124795  
446.000000	1.144250  
446.500000	1.151318  
447.000000	1.152303  
447.500000	1.138037  
448.000000	1.142628  
448.500000	1.159507  
449.000000	1.183446  
449.500000	1.185121  
450.000000	1.185787  
450.500000	1.192000  
451.000000	1.209606  
451.500000	1.219522  
452.000000	1.220401  
452.500000	1.227727  
453.000000	1.250121  
453.500000	1.268621  
454.000000	1.269696  
454.500000	1.265628  
455.000000	1.278250  
455.500000	1.296848  
456.000000	1.291356  
456.500000	1.286333  
457.000000	1.297507  
457.500000	1.330833  
458.000000	1.346704  
458.500000	1.345280  
459.000000	1.333189  
459.500000	1.326886  
460.000000	1.319886  
460.500000	1.319181  
461.000000	1.337015  
461.500000	1.358863  
462.000000	1.366075  
462.500000	1.345651  
463.000000	1.325704  
463.500000	1.324401  
464.000000	1.352712  
464.500000	1.377916  
465.000000	1.389977  
465.500000	1.379643  
466.000000	1.379113  
466.500000	1.386954  
467.000000	1.401181  
467.500000	1.389575  
468.000000	1.390462  
468.500000	1.408401  
469.000000	1.431939  
469.500000	1.426174  
470.000000	1.398477  
470.500000	1.384636  
471.000000	1.406651  
471.500000	1.440083  
472.000000	1.449022  
472.500000	1.426151  
473.000000	1.411939  
473.500000	1.434507  
474.000000	1.480643  
474.500000	1.502378  
475.000000	1.494856  
475.500000	1.473295  
476.000000	1.463674  
476.500000	1.453946  
477.000000	1.439000  
477.500000	1.433931  
478.000000	1.436545  
478.500000	1.459416  
479.000000	1.498181  
479.500000	1.538310  
480.000000	1.548113  
480.500000	1.538871  
481.000000	1.540689  
481.500000	1.570151  
482.000000	1.592674  
482.500000	1.607333  
483.000000	1.635871  
483.500000	1.655916  
484.000000	1.627113  
484.500000	1.569681  
485.000000	1.536303  
485.500000	1.561500  
486.000000	1.601507  
486.500000	1.609401  
487.000000	1.576719  
487.500000	1.557704  
488.000000	1.562727  
488.500000	1.561318  
489.000000	1.531977  
489.500000	1.497856  
490.000000	1.495500  
490.500000	1.507977  
491.000000	1.521022  
491.500000	1.523068  
492.000000	1.516651  
492.500000	1.502348  
493.000000	1.495242  
493.500000	1.483462  
494.000000	1.470227  
494.500000	1.454075  
495.000000	1.456803  
495.500000	1.482143  
496.000000	1.511128  
496.500000	1.500484  
497.000000	1.455696  
497.500000	1.411901  
498.000000	1.389856  
498.500000	1.383090  
499.000000	1.372553  
499.500000	1.375606  
500.000000	1.384583  
500.500000	1.391621  
501.000000	1.383507  
501.500000	1.375348  
502.000000	1.374265  
502.500000	1.379962  
503.000000	1.369477  
503.500000	1.348045  
504.000000	1.334280  
504.500000	1.336613  
505.000000	1.335886  
505.500000	1.315984  
506.000000	1.291401  
506.500000	1.279712  
507.000000	1.285159  
507.500000	1.281651  
508.000000	1.278734  
508.500000	1.281977  
509.000000	1.290962  
509.500000	1.269446  
510.000000	1.221909  
510.500000	1.182068  
511.000000	1.186113  
511.500000	1.202431  
512.000000	1.218492  
512.500000	1.227151  
513.000000	1.228992  
513.500000	1.212750  
514.000000	1.191242  
514.500000	1.180734  
515.000000	1.177825  
515.500000	1.167553  
516.000000	1.148515  
516.500000	1.122204  
517.000000	1.095022  
517.500000	1.088356  
518.000000	1.113780  
518.500000	1.137560  
519.000000	1.120757  
519.500000	1.089840  
520.000000	1.096090  
520.500000	1.132765  
521.000000	1.128734  
521.500000	1.085825  
522.000000	1.034166  
522.500000	0.998295  
523.000000	0.985469  
523.500000	0.984825  
524.000000	1.000068  
524.500000	1.002484  
525.000000	0.990628  
525.500000	0.962590  
526.000000	0.954090  
526.500000	0.956575  
527.000000	0.978704  
527.500000	0.988113  
528.000000	0.973333  
528.500000	0.950386  
529.000000	0.939931  
529.500000	0.921295  
530.000000	0.889000  

