PE FL                   SPECTRUM    ASCII       PEDS        1.60        
  -1
01#193.SP
02/03/17
06:00:12.00
02/03/17
06:02:20.00


470.000000
1









LS55
500.00
5.00
5.00
SCAN
1
20
100
100
0
100
0
1
0
1
7
ON
600 570 
1 0 0
#HDR
-1
-1
#GR
NM

0.00002384185791015625
0.0
280.000000
0.500000
381
8
1.460083
0.075189
#DATA
280.000000	0.243000 
280.500000	0.174727 
281.000000	0.151606 
281.500000	0.167053 
282.000000	0.184651 
282.500000	0.192598 
283.000000	0.192643 
283.500000	0.183045 
284.000000	0.164598 
284.500000	0.151750 
285.000000	0.140560 
285.500000	0.128606 
286.000000	0.109643 
286.500000	0.090833 
287.000000	0.080295 
287.500000	0.080583 
288.000000	0.085621 
288.500000	0.089840 
289.000000	0.093340 
289.500000	0.095363 
290.000000	0.090484 
290.500000	0.081613 
291.000000	0.079840 
291.500000	0.093386 
292.000000	0.104454 
292.500000	0.104643 
293.000000	0.089840 
293.500000	0.080462 
294.000000	0.075189 
294.500000	0.076318 
295.000000	0.078893 
295.500000	0.086098 
296.000000	0.092750 
296.500000	0.094825 
297.000000	0.095916 
297.500000	0.096136 
298.000000	0.099386 
298.500000	0.103878 
299.000000	0.107962 
299.500000	0.105363 
300.000000	0.096204 
300.500000	0.087227 
301.000000	0.079333 
301.500000	0.082212 
302.000000	0.090492 
302.500000	0.102295 
303.000000	0.101719 
303.500000	0.099128 
304.000000	0.095583 
304.500000	0.096409 
305.000000	0.094212 
305.500000	0.099196 
306.000000	0.100863 
306.500000	0.099090 
307.000000	0.092545 
307.500000	0.086878 
308.000000	0.081598 
308.500000	0.079484 
309.000000	0.086704 
309.500000	0.099166 
310.000000	0.107000 
310.500000	0.101848 
311.000000	0.099537 
311.500000	0.105151 
312.000000	0.113575 
312.500000	0.107681 
313.000000	0.093318 
313.500000	0.092128 
314.000000	0.104075 
314.500000	0.104590 
315.000000	0.096492 
315.500000	0.097856 
316.000000	0.114689 
316.500000	0.126962 
317.000000	0.127795 
317.500000	0.120575 
318.000000	0.117287 
318.500000	0.116560 
319.000000	0.117037 
319.500000	0.112227 
320.000000	0.105015 
320.500000	0.104515 
321.000000	0.105636 
321.500000	0.098416 
322.000000	0.086530 
322.500000	0.091333 
323.000000	0.112106 
323.500000	0.124537 
324.000000	0.115871 
324.500000	0.101704 
325.000000	0.097537 
325.500000	0.104651 
326.000000	0.112606 
326.500000	0.120621 
327.000000	0.124181 
327.500000	0.123484 
328.000000	0.120143 
328.500000	0.123522 
329.000000	0.125780 
329.500000	0.128007 
330.000000	0.124643 
330.500000	0.125704 
331.000000	0.128424 
331.500000	0.136871 
332.000000	0.135575 
332.500000	0.132121 
333.000000	0.125606 
333.500000	0.130484 
334.000000	0.130621 
334.500000	0.125530 
335.000000	0.111234 
335.500000	0.108075 
336.000000	0.115409 
336.500000	0.129015 
337.000000	0.129121 
337.500000	0.116409 
338.000000	0.110007 
338.500000	0.113666 
339.000000	0.124780 
339.500000	0.131575 
340.000000	0.138977 
340.500000	0.140439 
341.000000	0.138000 
341.500000	0.133734 
342.000000	0.135340 
342.500000	0.139803 
343.000000	0.136772 
343.500000	0.136886 
344.000000	0.137757 
344.500000	0.143340 
345.000000	0.140439 
345.500000	0.140128 
346.000000	0.141280 
346.500000	0.152121 
347.000000	0.154098 
347.500000	0.147946 
348.000000	0.135893 
348.500000	0.132174 
349.000000	0.134106 
349.500000	0.135878 
350.000000	0.134886 
350.500000	0.135636 
351.000000	0.144803 
351.500000	0.150704 
352.000000	0.152643 
352.500000	0.149265 
353.000000	0.150234 
353.500000	0.155484 
354.000000	0.162022 
354.500000	0.160227 
355.000000	0.147159 
355.500000	0.133507 
356.000000	0.132810 
356.500000	0.145015 
357.000000	0.150295 
357.500000	0.149007 
358.000000	0.151954 
358.500000	0.161674 
359.000000	0.159863 
359.500000	0.146984 
360.000000	0.141893 
360.500000	0.154219 
361.000000	0.162772 
361.500000	0.156946 
362.000000	0.151174 
362.500000	0.160060 
363.000000	0.169795 
363.500000	0.160265 
364.000000	0.140734 
364.500000	0.139393 
365.000000	0.155969 
365.500000	0.173545 
366.000000	0.176393 
366.500000	0.169750 
367.000000	0.159113 
367.500000	0.158219 
368.000000	0.167060 
368.500000	0.179477 
369.000000	0.178037 
369.500000	0.166712 
370.000000	0.151780 
370.500000	0.147992 
371.000000	0.148803 
371.500000	0.151416 
372.000000	0.151454 
372.500000	0.154750 
373.000000	0.159893 
373.500000	0.159083 
374.000000	0.155765 
374.500000	0.157159 
375.000000	0.169765 
375.500000	0.172590 
376.000000	0.168818 
376.500000	0.163575 
377.000000	0.169795 
377.500000	0.181227 
378.000000	0.185886 
378.500000	0.183568 
379.000000	0.176083 
379.500000	0.171651 
380.000000	0.168022 
380.500000	0.172613 
381.000000	0.173515 
381.500000	0.173484 
382.000000	0.171075 
382.500000	0.169363 
383.000000	0.163636 
383.500000	0.157340 
384.000000	0.161053 
384.500000	0.167772 
385.000000	0.174984 
385.500000	0.181886 
386.000000	0.188734 
386.500000	0.187227 
387.000000	0.178606 
387.500000	0.172484 
388.000000	0.173840 
388.500000	0.179128 
389.000000	0.179598 
389.500000	0.177704 
390.000000	0.176954 
390.500000	0.182840 
391.000000	0.189651 
391.500000	0.188053 
392.000000	0.184340 
392.500000	0.184492 
393.000000	0.185159 
393.500000	0.182939 
394.000000	0.184356 
394.500000	0.194651 
395.000000	0.209015 
395.500000	0.221265 
396.000000	0.225181 
396.500000	0.221545 
397.000000	0.217121 
397.500000	0.223333 
398.000000	0.240643 
398.500000	0.268121 
399.000000	0.295060 
399.500000	0.312234 
400.000000	0.313643 
400.500000	0.304356 
401.000000	0.289825 
401.500000	0.280454 
402.000000	0.275053 
402.500000	0.274568 
403.000000	0.267295 
403.500000	0.258924 
404.000000	0.245007 
404.500000	0.242939 
405.000000	0.243196 
405.500000	0.251469 
406.000000	0.253621 
406.500000	0.252621 
407.000000	0.243954 
407.500000	0.237000 
408.000000	0.229303 
408.500000	0.223159 
409.000000	0.222810 
409.500000	0.228409 
410.000000	0.234560 
410.500000	0.232613 
411.000000	0.229931 
411.500000	0.239310 
412.000000	0.255545 
412.500000	0.265310 
413.000000	0.264113 
413.500000	0.261090 
414.000000	0.257393 
414.500000	0.255515 
415.000000	0.253250 
415.500000	0.256204 
416.000000	0.256151 
416.500000	0.260249 
417.000000	0.268363 
417.500000	0.284416 
418.000000	0.291719 
418.500000	0.293454 
419.000000	0.285621 
419.500000	0.281909 
420.000000	0.279068 
420.500000	0.285545 
421.000000	0.295727 
421.500000	0.305090 
422.000000	0.315045 
422.500000	0.326234 
423.000000	0.335992 
423.500000	0.328333 
424.000000	0.318098 
424.500000	0.321696 
425.000000	0.339492 
425.500000	0.350560 
426.000000	0.338750 
426.500000	0.322053 
427.000000	0.311151 
427.500000	0.320022 
428.000000	0.329916 
428.500000	0.339015 
429.000000	0.343454 
429.500000	0.359537 
430.000000	0.376704 
430.500000	0.387446 
431.000000	0.390378 
431.500000	0.399515 
432.000000	0.410742 
432.500000	0.422515 
433.000000	0.433378 
433.500000	0.442295 
434.000000	0.441189 
434.500000	0.428500 
435.000000	0.423681 
435.500000	0.438068 
436.000000	0.463522 
436.500000	0.475166 
437.000000	0.476992 
437.500000	0.481500 
438.000000	0.494303 
438.500000	0.502106 
439.000000	0.504265 
439.500000	0.512590 
440.000000	0.532439 
440.500000	0.549053 
441.000000	0.559863 
441.500000	0.562659 
442.000000	0.558515 
442.500000	0.555242 
443.000000	0.568424 
443.500000	0.590212 
444.000000	0.609424 
444.500000	0.628393 
445.000000	0.656939 
445.500000	0.694196 
446.000000	0.712454 
446.500000	0.712249 
447.000000	0.709659 
447.500000	0.718174 
448.000000	0.725636 
448.500000	0.726492 
449.000000	0.712840 
449.500000	0.698007 
450.000000	0.698530 
450.500000	0.724015 
451.000000	0.764075 
451.500000	0.793856 
452.000000	0.803772 
452.500000	0.811916 
453.000000	0.832416 
453.500000	0.854499 
454.000000	0.858954 
454.500000	0.852318 
455.000000	0.862295 
455.500000	0.896530 
456.000000	0.932545 
456.500000	0.956174 
457.000000	0.974878 
457.500000	0.986856 
458.000000	1.000500 
458.500000	1.015848 
459.000000	1.057143 
459.500000	1.104810 
460.000000	1.152818 
460.500000	1.163045 
461.000000	1.156606 
461.500000	1.141219 
462.000000	1.147348 
462.500000	1.153295 
463.000000	1.164363 
463.500000	1.176734 
464.000000	1.191712 
464.500000	1.208075 
465.000000	1.229719 
465.500000	1.264378 
466.000000	1.301780 
466.500000	1.334651 
467.000000	1.360371 
467.500000	1.387553 
468.000000	1.420356 
468.500000	1.451409 
469.000000	1.460083 
469.500000	1.429643 
470.000000	1.374000 

