PE FL                   SPECTRUM    ASCII       PEDS        1.60        
  -1
01#190.SP
02/03/17
05:50:25.00
02/03/17
05:52:37.00


470.000000
1









LS55
500.00
5.00
5.00
SCAN
1
20
100
100
0
100
0
0
0
1
7
ON
580 310 
1 0 0
#HDR
-1
-1
#GR
NM

0.00002384185791015625
0.0
270.000000
0.500000
401
8
7.133863
1.282537
#DATA
270.000000	1.382000 
270.500000	1.393643 
271.000000	1.416371 
271.500000	1.460560 
272.000000	1.480196 
272.500000	1.447522 
273.000000	1.386030 
273.500000	1.385636 
274.000000	1.414409 
274.500000	1.441098 
275.000000	1.442143 
275.500000	1.463598 
276.000000	1.472583 
276.500000	1.462098 
277.000000	1.430386 
277.500000	1.418969 
278.000000	1.413909 
278.500000	1.408515 
279.000000	1.393295 
279.500000	1.384863 
280.000000	1.392492 
280.500000	1.412075 
281.000000	1.434893 
281.500000	1.444606 
282.000000	1.429454 
282.500000	1.404325 
283.000000	1.384848 
283.500000	1.377818 
284.000000	1.373257 
284.500000	1.372068 
285.000000	1.368181 
285.500000	1.372234 
286.000000	1.379674 
286.500000	1.394340 
287.000000	1.389257 
287.500000	1.362787 
288.000000	1.343916 
288.500000	1.348189 
289.000000	1.347227 
289.500000	1.338431 
290.000000	1.328166 
290.500000	1.332310 
291.000000	1.340803 
291.500000	1.340909 
292.000000	1.318825 
292.500000	1.291106 
293.000000	1.282537 
293.500000	1.303325 
294.000000	1.331181 
294.500000	1.331598 
295.000000	1.328333 
295.500000	1.325159 
296.000000	1.341765 
296.500000	1.365893 
297.000000	1.392560 
297.500000	1.404250 
298.000000	1.439742 
298.500000	1.513901 
299.000000	1.603159 
299.500000	1.686598 
300.000000	1.762151 
300.500000	1.880863 
301.000000	2.011931 
301.500000	2.135727 
302.000000	2.240212 
302.500000	2.373727 
303.000000	2.500022 
303.500000	2.604969 
304.000000	2.686136 
304.500000	2.790340 
305.000000	2.903280 
305.500000	2.978681 
306.000000	3.011318 
306.500000	3.055265 
307.000000	3.128924 
307.500000	3.193325 
308.000000	3.210727 
308.500000	3.217696 
309.000000	3.263053 
309.500000	3.348621 
310.000000	3.401340 
310.500000	3.389303 
311.000000	3.338393 
311.500000	3.324371 
312.000000	3.337371 
312.500000	3.366280 
313.000000	3.405560 
313.500000	3.468810 
314.000000	3.512098 
314.500000	3.519704 
315.000000	3.518295 
315.500000	3.523613 
316.000000	3.524174 
316.500000	3.506681 
317.000000	3.516439 
317.500000	3.531166 
318.000000	3.562136 
318.500000	3.571007 
319.000000	3.577280 
319.500000	3.562030 
320.000000	3.568560 
320.500000	3.590106 
321.000000	3.632984 
321.500000	3.670583 
322.000000	3.717931 
322.500000	3.745462 
323.000000	3.779674 
323.500000	3.790833 
324.000000	3.799810 
324.500000	3.785886 
325.000000	3.809060 
325.500000	3.848113 
326.000000	3.888174 
326.500000	3.864053 
327.000000	3.839553 
327.500000	3.857492 
328.000000	3.934909 
328.500000	4.015159 
329.000000	4.046045 
329.500000	4.011939 
330.000000	4.000250 
330.500000	4.046537 
331.000000	4.128674 
331.500000	4.179378 
332.000000	4.186340 
332.500000	4.196606 
333.000000	4.242174 
333.500000	4.298310 
334.000000	4.340454 
334.500000	4.368280 
335.000000	4.376734 
335.500000	4.400325 
336.000000	4.445272 
336.500000	4.495068 
337.000000	4.525765 
337.500000	4.560393 
338.000000	4.597484 
338.500000	4.641590 
339.000000	4.678560 
339.500000	4.742310 
340.000000	4.805825 
340.500000	4.853030 
341.000000	4.883689 
341.500000	4.916393 
342.000000	4.932083 
342.500000	4.942871 
343.000000	4.976409 
343.500000	5.033863 
344.000000	5.078121 
344.500000	5.117234 
345.000000	5.173787 
345.500000	5.214212 
346.000000	5.241015 
346.500000	5.289469 
347.000000	5.370939 
347.500000	5.421386 
348.000000	5.455780 
348.500000	5.499106 
349.000000	5.581477 
349.500000	5.642719 
350.000000	5.673560 
350.500000	5.708265 
351.000000	5.765166 
351.500000	5.825749 
352.000000	5.894409 
352.500000	5.956909 
353.000000	6.002719 
353.500000	6.031295 
354.000000	6.059810 
354.500000	6.093537 
355.000000	6.127469 
355.500000	6.153371 
356.000000	6.172446 
356.500000	6.221189 
357.000000	6.285621 
357.500000	6.375015 
358.000000	6.465984 
358.500000	6.521598 
359.000000	6.540659 
359.500000	6.539780 
360.000000	6.566030 
360.500000	6.648333 
361.000000	6.760606 
361.500000	6.825628 
362.000000	6.832696 
362.500000	6.820696 
363.000000	6.831469 
363.500000	6.864234 
364.000000	6.923083 
364.500000	7.000628 
365.000000	7.047886 
365.500000	7.024265 
366.000000	6.988795 
366.500000	7.007113 
367.000000	7.042545 
367.500000	7.083977 
368.000000	7.101151 
368.500000	7.133863 
369.000000	7.120613 
369.500000	7.102242 
370.000000	7.048136 
370.500000	7.017946 
371.000000	6.976022 
371.500000	6.960075 
372.000000	6.940143 
372.500000	6.931007 
373.000000	6.928128 
373.500000	6.916530 
374.000000	6.863151 
374.500000	6.781590 
375.000000	6.707098 
375.500000	6.647977 
376.000000	6.607515 
376.500000	6.563037 
377.000000	6.497613 
377.500000	6.422151 
378.000000	6.335863 
378.500000	6.263356 
379.000000	6.201143 
379.500000	6.150219 
380.000000	6.113371 
380.500000	6.080734 
381.000000	6.028409 
381.500000	5.924825 
382.000000	5.823181 
382.500000	5.737833 
383.000000	5.703772 
383.500000	5.671734 
384.000000	5.632393 
384.500000	5.540022 
385.000000	5.429545 
385.500000	5.339750 
386.000000	5.296825 
386.500000	5.250712 
387.000000	5.171689 
387.500000	5.085393 
388.000000	5.020484 
388.500000	4.962954 
389.000000	4.891757 
389.500000	4.807689 
390.000000	4.736196 
390.500000	4.688189 
391.000000	4.659333 
391.500000	4.595939 
392.000000	4.500727 
392.500000	4.412181 
393.000000	4.365181 
393.500000	4.322446 
394.000000	4.265878 
394.500000	4.183636 
395.000000	4.098265 
395.500000	4.010659 
396.000000	3.919734 
396.500000	3.853128 
397.000000	3.792378 
397.500000	3.730136 
398.000000	3.655515 
398.500000	3.606507 
399.000000	3.564992 
399.500000	3.534734 
400.000000	3.472128 
400.500000	3.418454 
401.000000	3.355909 
401.500000	3.293962 
402.000000	3.219636 
402.500000	3.159121 
403.000000	3.124227 
403.500000	3.100636 
404.000000	3.065151 
404.500000	2.999818 
405.000000	2.938378 
405.500000	2.888007 
406.000000	2.873499 
406.500000	2.845204 
407.000000	2.788068 
407.500000	2.695886 
408.000000	2.614166 
408.500000	2.565931 
409.000000	2.542310 
409.500000	2.519477 
410.000000	2.496575 
410.500000	2.472765 
411.000000	2.433037 
411.500000	2.384075 
412.000000	2.350234 
412.500000	2.328916 
413.000000	2.304265 
413.500000	2.262931 
414.000000	2.236787 
414.500000	2.220863 
415.000000	2.202007 
415.500000	2.163037 
416.000000	2.131022 
416.500000	2.109189 
417.000000	2.105212 
417.500000	2.100742 
418.000000	2.083318 
418.500000	2.030348 
419.000000	1.964272 
419.500000	1.914454 
420.000000	1.908439 
420.500000	1.921522 
421.000000	1.920681 
421.500000	1.884189 
422.000000	1.826742 
422.500000	1.767848 
423.000000	1.748462 
423.500000	1.764318 
424.000000	1.801545 
424.500000	1.809878 
425.000000	1.792166 
425.500000	1.743583 
426.000000	1.709984 
426.500000	1.697053 
427.000000	1.700363 
427.500000	1.687500 
428.000000	1.661727 
428.500000	1.650598 
429.000000	1.662386 
429.500000	1.678015 
430.000000	1.665893 
430.500000	1.641416 
431.000000	1.628295 
431.500000	1.629492 
432.000000	1.626939 
432.500000	1.610098 
433.000000	1.587242 
433.500000	1.577265 
434.000000	1.591515 
434.500000	1.606151 
435.000000	1.608113 
435.500000	1.582030 
436.000000	1.554643 
436.500000	1.530712 
437.000000	1.515128 
437.500000	1.520431 
438.000000	1.554189 
438.500000	1.583628 
439.000000	1.572090 
439.500000	1.544825 
440.000000	1.527969 
440.500000	1.541356 
441.000000	1.536924 
441.500000	1.519371 
442.000000	1.491409 
442.500000	1.499196 
443.000000	1.525492 
443.500000	1.554575 
444.000000	1.550037 
444.500000	1.541719 
445.000000	1.529863 
445.500000	1.520628 
446.000000	1.504242 
446.500000	1.491984 
447.000000	1.488287 
447.500000	1.498719 
448.000000	1.514833 
448.500000	1.527393 
449.000000	1.518363 
449.500000	1.509295 
450.000000	1.514780 
450.500000	1.528575 
451.000000	1.546037 
451.500000	1.565848 
452.000000	1.579893 
452.500000	1.559719 
453.000000	1.539704 
453.500000	1.530151 
454.000000	1.541803 
454.500000	1.535212 
455.000000	1.532257 
455.500000	1.546515 
456.000000	1.581765 
456.500000	1.609674 
457.000000	1.622742 
457.500000	1.623333 
458.000000	1.615954 
458.500000	1.609757 
459.000000	1.597340 
459.500000	1.589636 
460.000000	1.590590 
460.500000	1.605371 
461.000000	1.617257 
461.500000	1.615750 
462.000000	1.595333 
462.500000	1.596621 
463.000000	1.631424 
463.500000	1.675348 
464.000000	1.713810 
464.500000	1.746803 
465.000000	1.779439 
465.500000	1.791719 
466.000000	1.782583 
466.500000	1.777196 
467.000000	1.806446 
467.500000	1.852007 
468.000000	1.904659 
468.500000	1.961803 
469.000000	2.003946 
469.500000	1.981719 
470.000000	1.892000 

