"CdS 30 sec - RawData"
"Wavelength nm.","Abs."
200.00,2.344131
201.00,-0.998260
202.00,-0.264038
203.00,0.352829
204.00,0.266586
205.00,0.976395
206.00,0.943634
207.00,0.367584
208.00,0.041443
209.00,0.008484
210.00,-0.121902
211.00,-0.028473
212.00,0.018906
213.00,0.004776
214.00,-0.140228
215.00,-0.083908
216.00,-0.177673
217.00,-0.226807
218.00,-0.166458
219.00,-0.198196
220.00,-0.125259
221.00,-0.205627
222.00,-0.175339
223.00,-0.215469
224.00,-0.243942
225.00,-0.280090
226.00,-0.314621
227.00,-0.284225
228.00,-0.271347
229.00,-0.301208
230.00,-0.313110
231.00,-0.294952
232.00,-0.344193
233.00,-0.332397
234.00,-0.325638
235.00,-0.289001
236.00,-0.296768
237.00,-0.272217
238.00,-0.170746
239.00,-0.054474
240.00,0.073273
241.00,0.264297
242.00,0.449799
243.00,0.591629
244.00,0.724960
245.00,0.862595
246.00,0.963898
247.00,1.004745
248.00,1.020401
249.00,1.023895
250.00,1.007675
251.00,0.985489
252.00,0.960144
253.00,0.953674
254.00,0.940018
255.00,0.931412
256.00,0.913940
257.00,0.886703
258.00,0.878723
259.00,0.887268
260.00,0.899307
261.00,0.900177
262.00,0.914673
263.00,0.864716
264.00,0.802216
265.00,0.781082
266.00,0.744263
267.00,0.699371
268.00,0.746658
269.00,0.806015
270.00,0.720352
271.00,0.608704
272.00,0.538315
273.00,0.499374
274.00,0.478043
275.00,0.463242
276.00,0.452484
277.00,0.444275
278.00,0.436142
279.00,0.430298
280.00,0.425186
281.00,0.418961
282.00,0.415268
283.00,0.408890
284.00,0.403091
285.00,0.396652
286.00,0.389038
287.00,0.381927
288.00,0.374359
289.00,0.367447
290.00,0.361008
291.00,0.355347
292.00,0.349716
293.00,0.344543
294.00,0.339676
295.00,0.335236
296.00,0.330978
297.00,0.326233
298.00,0.321518
299.00,0.317245
300.00,0.313400
301.00,0.308960
302.00,0.303757
303.00,0.298843
304.00,0.294525
305.00,0.289551
306.00,0.285904
307.00,0.281357
308.00,0.275177
309.00,0.270035
310.00,0.265854
311.00,0.260513
312.00,0.256744
313.00,0.252075
314.00,0.246933
315.00,0.242157
316.00,0.237000
317.00,0.231644
318.00,0.226517
319.00,0.221832
320.00,0.217819
321.00,0.212219
322.00,0.208038
323.00,0.203278
324.00,0.199173
325.00,0.195236
326.00,0.190155
327.00,0.186890
328.00,0.182312
329.00,0.178848
330.00,0.175140
331.00,0.171860
332.00,0.167587
333.00,0.162308
334.00,0.158203
335.00,0.154755
336.00,0.150391
337.00,0.147171
338.00,0.143570
339.00,0.139893
340.00,0.138199
341.00,0.134933
342.00,0.130783
343.00,0.128662
344.00,0.125366
345.00,0.123703
346.00,0.121124
347.00,0.118408
348.00,0.116928
349.00,0.115402
350.00,0.112534
351.00,0.110291
352.00,0.108459
353.00,0.106689
354.00,0.105026
355.00,0.103073
356.00,0.101593
357.00,0.099319
358.00,0.097443
359.00,0.096481
360.00,0.095230
361.00,0.092941
362.00,0.091888
363.00,0.090958
364.00,0.089050
365.00,0.088425
366.00,0.087067
367.00,0.085464
368.00,0.084213
369.00,0.082642
370.00,0.080566
371.00,0.079102
372.00,0.078156
373.00,0.077271
374.00,0.075546
375.00,0.074448
376.00,0.073105
377.00,0.071518
378.00,0.070053
379.00,0.068802
380.00,0.067444
381.00,0.066147
382.00,0.065033
383.00,0.063400
384.00,0.061981
385.00,0.060226
386.00,0.058868
387.00,0.057648
388.00,0.055908
389.00,0.054550
390.00,0.053009
391.00,0.051819
392.00,0.050354
393.00,0.049088
394.00,0.047409
395.00,0.046234
396.00,0.044983
397.00,0.043594
398.00,0.042175
399.00,0.040985
400.00,0.039673
401.00,0.038620
402.00,0.037628
403.00,0.036499
404.00,0.035583
405.00,0.034500
406.00,0.033707
407.00,0.032761
408.00,0.032028
409.00,0.031067
410.00,0.030319
411.00,0.029572
412.00,0.028915
413.00,0.028366
414.00,0.027679
415.00,0.027344
416.00,0.026398
417.00,0.025314
418.00,0.024750
419.00,0.024185
420.00,0.023743
421.00,0.023178
422.00,0.022766
423.00,0.022415
424.00,0.021957
425.00,0.021439
426.00,0.021103
427.00,0.020782
428.00,0.020416
429.00,0.020004
430.00,0.019760
431.00,0.019394
432.00,0.019135
433.00,0.018768
434.00,0.018509
435.00,0.018219
436.00,0.017883
437.00,0.017548
438.00,0.017288
439.00,0.016968
440.00,0.016724
441.00,0.016541
442.00,0.016296
443.00,0.016052
444.00,0.015793
445.00,0.015518
446.00,0.015381
447.00,0.015030
448.00,0.014771
449.00,0.014542
450.00,0.014328
451.00,0.014191
452.00,0.013901
453.00,0.013718
454.00,0.013565
455.00,0.013321
456.00,0.013138
457.00,0.012878
458.00,0.012695
459.00,0.012466
460.00,0.012360
461.00,0.012131
462.00,0.011963
463.00,0.011749
464.00,0.011536
465.00,0.011414
466.00,0.011322
467.00,0.011200
468.00,0.010941
469.00,0.010742
470.00,0.010559
471.00,0.010345
472.00,0.010223
473.00,0.010162
474.00,0.009964
475.00,0.009811
476.00,0.009659
477.00,0.009598
478.00,0.009460
479.00,0.009293
480.00,0.009201
481.00,0.009048
482.00,0.008926
483.00,0.008789
484.00,0.008789
485.00,0.008621
486.00,0.008514
487.00,0.008392
488.00,0.008209
489.00,0.008148
490.00,0.008026
491.00,0.007980
492.00,0.007843
493.00,0.007599
494.00,0.007523
495.00,0.007477
496.00,0.007355
497.00,0.007172
498.00,0.007111
499.00,0.007034
500.00,0.006927
501.00,0.006805
502.00,0.006714
503.00,0.006622
504.00,0.006516
505.00,0.006439
506.00,0.006363
507.00,0.006226
508.00,0.006119
509.00,0.006027
510.00,0.005936
511.00,0.005798
512.00,0.005692
513.00,0.005630
514.00,0.005585
515.00,0.005524
516.00,0.005417
517.00,0.005280
518.00,0.005325
519.00,0.005142
520.00,0.005096
521.00,0.005035
522.00,0.004898
523.00,0.004807
524.00,0.004730
525.00,0.004684
526.00,0.004593
527.00,0.004562
528.00,0.004456
529.00,0.004333
530.00,0.004303
531.00,0.004227
532.00,0.004196
533.00,0.004089
534.00,0.004013
535.00,0.003937
536.00,0.003601
537.00,0.003433
538.00,0.003448
539.00,0.003342
540.00,0.003296
541.00,0.003281
542.00,0.003159
543.00,0.003113
544.00,0.003098
545.00,0.002991
546.00,0.002914
547.00,0.002853
548.00,0.002808
549.00,0.002747
550.00,0.002731
551.00,0.002655
552.00,0.002609
553.00,0.002548
554.00,0.002518
555.00,0.002380
556.00,0.002274
557.00,0.002274
558.00,0.002197
559.00,0.002121
560.00,0.002090
561.00,0.001984
562.00,0.001907
563.00,0.001801
564.00,0.001724
565.00,0.001755
566.00,0.001724
567.00,0.001678
568.00,0.001633
569.00,0.001541
570.00,0.001480
571.00,0.001465
572.00,0.001358
573.00,0.001282
574.00,0.001266
575.00,0.001221
576.00,0.001190
577.00,0.001129
578.00,0.001068
579.00,0.000992
580.00,0.000900
581.00,0.000870
582.00,0.000793
583.00,0.000687
584.00,0.000671
585.00,0.000656
586.00,0.000626
587.00,0.000656
588.00,0.000595
589.00,0.000458
590.00,0.000397
591.00,0.000397
592.00,0.000336
593.00,0.000305
594.00,0.000244
595.00,0.000168
596.00,0.000198
597.00,0.000107
598.00,0.000076
599.00,0.000000
600.00,0.000137
601.00,0.001083
602.00,0.001175
603.00,0.001129
604.00,0.001114
605.00,0.001068
606.00,0.001007
607.00,0.001038
608.00,0.000961
609.00,0.000977
610.00,0.000885
611.00,0.000854
612.00,0.000824
613.00,0.000793
614.00,0.000809
615.00,0.000778
616.00,0.000656
617.00,0.000610
618.00,0.000565
619.00,0.000565
620.00,0.000534
621.00,0.000519
622.00,0.000443
623.00,0.000412
624.00,0.000351
625.00,0.000320
626.00,0.000305
627.00,0.000320
628.00,0.000275
629.00,0.000214
630.00,0.000183
631.00,0.000183
632.00,0.000153
633.00,0.000107
634.00,0.000061
635.00,0.000000
636.00,-0.000061
637.00,-0.000076
638.00,-0.000137
639.00,-0.000214
640.00,-0.000214
641.00,-0.000229
642.00,-0.000198
643.00,-0.000183
644.00,-0.000183
645.00,-0.000229
646.00,-0.000259
647.00,-0.000229
648.00,-0.000244
649.00,-0.000214
650.00,-0.000275
