"File_120407_231910 - RawData"
"Wavelength nm.","Abs."
200.00,-3.376175
200.50, 
201.00,-2.400009
201.50, 
202.00,-0.921402
202.50, 
203.00,-1.437775
203.50, 
204.00,-2.059372
204.50, 
205.00,-0.677460
205.50, 
206.00,-2.336395
206.50, 
207.00,-2.119492
207.50, 
208.00,-1.378845
208.50, 
209.00,-0.996582
209.50, 
210.00,-1.092194
210.50, 
211.00,-1.314301
211.50, 
212.00,-0.825394
212.50, 
213.00,-1.004364
213.50, 
214.00,-1.338226
214.50, 
215.00,-0.669159
215.50, 
216.00,-0.503403
216.50, 
217.00,-0.883087
217.50, 
218.00,-0.332275
218.50, 
219.00,-0.464386
219.50, 
220.00,-0.456833
220.50, 
221.00,-0.394745
221.50, 
222.00,-0.362564
222.50, 
223.00,-0.320969
223.50, 
224.00,-0.275269
224.50, 
225.00,-0.291168
225.50, 
226.00,-0.312622
226.50, 
227.00,-0.232590
227.50, 
228.00,-0.278351
228.50, 
229.00,-0.306854
229.50, 
230.00,-0.242783
230.50, 
231.00,-0.284958
231.50, 
232.00,-0.218811
232.50, 
233.00,-0.306091
233.50, 
234.00,-0.243820
234.50, 
235.00,-0.229355
235.50, 
236.00,-0.216766
236.50, 
237.00,-0.140213
237.50, 
238.00,-0.011444
238.50, 
239.00,0.123154
239.50, 
240.00,0.242676
240.50, 
241.00,0.418228
241.50, 
242.00,0.612930
242.50, 
243.00,0.773773
243.50, 
244.00,0.879578
244.50, 
245.00,0.950974
245.50, 
246.00,0.989502
246.50, 
247.00,0.984558
247.50, 
248.00,0.983948
248.50, 
249.00,0.961060
249.50, 
250.00,0.922516
250.50, 
251.00,0.881424
251.50, 
252.00,0.864746
252.50, 
253.00,0.867676
253.50, 
254.00,0.868591
254.50, 
255.00,0.859329
255.50, 
256.00,0.838318
256.50, 
257.00,0.808685
257.50, 
258.00,0.798828
258.50, 
259.00,0.815781
259.50, 
260.00,0.830627
260.50, 
261.00,0.840958
261.50, 
262.00,0.857651
262.50, 
263.00,0.803284
263.50, 
264.00,0.718521
264.50, 
265.00,0.684677
265.50, 
266.00,0.638779
266.50, 
267.00,0.588547
267.50, 
268.00,0.644119
268.50, 
269.00,0.717560
269.50, 
270.00,0.619598
270.50, 
271.00,0.478683
271.50, 
272.00,0.388107
272.50, 
273.00,0.338379
273.50, 
274.00,0.310837
274.50, 
275.00,0.291595
275.50, 
276.00,0.277954
276.50, 
277.00,0.268295
277.50, 
278.00,0.261765
278.50, 
279.00,0.255966
279.50, 
280.00,0.250000
280.50, 
281.00,0.243942
281.50, 
282.00,0.238632
282.50, 
283.00,0.233658
283.50, 
284.00,0.228424
284.50, 
285.00,0.224411
285.50, 
286.00,0.219238
286.50, 
287.00,0.214554
287.50, 
288.00,0.210526
288.50, 
289.00,0.205750
289.50, 
290.00,0.201752
290.50, 
291.00,0.198425
291.50, 
292.00,0.194977
292.50, 
293.00,0.192169
293.50, 
294.00,0.189438
294.50, 
295.00,0.186707
295.50, 
296.00,0.183792
296.50, 
297.00,0.181534
297.50, 
298.00,0.179764
298.50, 
299.00,0.176468
299.50, 
300.00,0.174561
300.50, 
301.00,0.171555
301.50, 
302.00,0.168961
302.50, 
303.00,0.166550
303.50, 
304.00,0.163300
304.50, 
305.00,0.161392
305.50, 
306.00,0.158646
306.50, 
307.00,0.155457
307.50, 
308.00,0.153275
308.50, 
309.00,0.149796
309.50, 
310.00,0.147995
310.50, 
311.00,0.144714
311.50, 
312.00,0.142441
312.50, 
313.00,0.139648
313.50, 
314.00,0.136795
314.50, 
315.00,0.133682
315.50, 
316.00,0.130066
316.50, 
317.00,0.127518
317.50, 
318.00,0.124451
318.50, 
319.00,0.122726
319.50, 
320.00,0.119690
320.50, 
321.00,0.117096
321.50, 
322.00,0.114075
322.50, 
323.00,0.111176
323.50, 
324.00,0.109299
324.50, 
325.00,0.107162
325.50, 
326.00,0.104172
326.50, 
327.00,0.102066
327.50, 
328.00,0.099442
328.50, 
329.00,0.098083
329.50, 
330.00,0.096359
330.50, 
331.00,0.093887
331.50, 
332.00,0.091217
332.50, 
333.00,0.089523
333.50, 
334.00,0.086670
334.50, 
335.00,0.083969
335.50, 
336.00,0.083176
336.50, 
337.00,0.080063
337.50, 
338.00,0.078171
338.50, 
339.00,0.076340
339.50, 
340.00,0.076736
340.50, 
341.00,0.073318
341.50, 
342.00,0.071869
342.50, 
343.00,0.071167
343.50, 
344.00,0.069427
344.50, 
345.00,0.068588
345.50, 
346.00,0.067184
346.50, 
347.00,0.066299
347.50, 
348.00,0.065125
348.50, 
349.00,0.063568
349.50, 
350.00,0.062225
350.50, 
351.00,0.060913
351.50, 
352.00,0.060532
352.50, 
353.00,0.059143
353.50, 
354.00,0.057983
354.50, 
355.00,0.057236
355.50, 
356.00,0.056213
356.50, 
357.00,0.055389
357.50, 
358.00,0.054245
358.50, 
359.00,0.053375
359.50, 
360.00,0.052994
360.50, 
361.00,0.052200
361.50, 
362.00,0.051193
362.50, 
363.00,0.050369
363.50, 
364.00,0.049667
364.50, 
365.00,0.048889
365.50, 
366.00,0.048752
366.50, 
367.00,0.048203
367.50, 
368.00,0.047653
368.50, 
369.00,0.046631
369.50, 
370.00,0.044998
370.50, 
371.00,0.044693
371.50, 
372.00,0.044373
372.50, 
373.00,0.043854
373.50, 
374.00,0.043213
374.50, 
375.00,0.042084
375.50, 
376.00,0.041672
376.50, 
377.00,0.041321
377.50, 
378.00,0.040375
378.50, 
379.00,0.039536
379.50, 
380.00,0.039505
380.50, 
381.00,0.038788
381.50, 
382.00,0.038177
382.50, 
383.00,0.037613
383.50, 
384.00,0.036926
384.50, 
385.00,0.036041
385.50, 
386.00,0.035812
386.50, 
387.00,0.035294
387.50, 
388.00,0.034698
388.50, 
389.00,0.034164
389.50, 
390.00,0.033310
390.50, 
391.00,0.033066
391.50, 
392.00,0.032425
392.50, 
393.00,0.032059
393.50, 
394.00,0.031509
394.50, 
395.00,0.030930
395.50, 
396.00,0.030457
396.50, 
397.00,0.029953
397.50, 
398.00,0.029221
398.50, 
399.00,0.028824
399.50, 
400.00,0.028336
400.50, 
401.00,0.027893
401.50, 
402.00,0.027237
402.50, 
403.00,0.026535
403.50, 
404.00,0.025879
404.50, 
405.00,0.025345
405.50, 
406.00,0.025162
406.50, 
407.00,0.024551
407.50, 
408.00,0.023834
408.50, 
409.00,0.023209
409.50, 
410.00,0.022598
410.50, 
411.00,0.022003
411.50, 
412.00,0.021286
412.50, 
413.00,0.020966
413.50, 
414.00,0.020370
414.50, 
415.00,0.019745
415.50, 
416.00,0.018967
416.50, 
417.00,0.017822
417.50, 
418.00,0.017258
418.50, 
419.00,0.016647
419.50, 
420.00,0.016190
420.50, 
421.00,0.015579
421.50, 
422.00,0.015228
422.50, 
423.00,0.014694
423.50, 
424.00,0.014297
424.50, 
425.00,0.013626
425.50, 
426.00,0.013229
426.50, 
427.00,0.012741
427.50, 
428.00,0.012451
428.50, 
429.00,0.012024
429.50, 
430.00,0.011627
430.50, 
431.00,0.011276
431.50, 
432.00,0.011124
432.50, 
433.00,0.010620
433.50, 
434.00,0.010315
434.50, 
435.00,0.009995
435.50, 
436.00,0.009781
436.50, 
437.00,0.009491
437.50, 
438.00,0.009232
438.50, 
439.00,0.008987
439.50, 
440.00,0.008728
440.50, 
441.00,0.008499
441.50, 
442.00,0.008392
442.50, 
443.00,0.008118
443.50, 
444.00,0.007935
444.50, 
445.00,0.007797
445.50, 
446.00,0.007645
446.50, 
447.00,0.007431
447.50, 
448.00,0.007233
448.50, 
449.00,0.007111
449.50, 
450.00,0.006882
450.50, 
451.00,0.006744
451.50, 
452.00,0.006622
452.50, 
453.00,0.006485
453.50, 
454.00,0.006409
454.50, 
455.00,0.006256
455.50, 
456.00,0.006104
456.50, 
457.00,0.005936
457.50, 
458.00,0.005783
458.50, 
459.00,0.005676
459.50, 
460.00,0.005630
460.50, 
461.00,0.005508
461.50, 
462.00,0.005524
462.50, 
463.00,0.005341
463.50, 
464.00,0.005188
464.50, 
465.00,0.005066
465.50, 
466.00,0.004990
466.50, 
467.00,0.004868
467.50, 
468.00,0.004791
468.50, 
469.00,0.004639
469.50, 
470.00,0.004532
470.50, 
471.00,0.004410
471.50, 
472.00,0.004456
472.50, 
473.00,0.004364
473.50, 
474.00,0.004105
474.50, 
475.00,0.004135
475.50, 
476.00,0.004059
476.50, 
477.00,0.004013
477.50, 
478.00,0.003952
478.50, 
479.00,0.003799
479.50, 
480.00,0.003799
480.50, 
481.00,0.003708
481.50, 
482.00,0.003616
482.50, 
483.00,0.003555
483.50, 
484.00,0.003555
484.50, 
485.00,0.003479
485.50, 
486.00,0.003418
486.50, 
487.00,0.003342
487.50, 
488.00,0.003250
488.50, 
489.00,0.003235
489.50, 
490.00,0.003174
490.50, 
491.00,0.003174
491.50, 
492.00,0.003189
492.50, 
493.00,0.003082
493.50, 
494.00,0.002975
494.50, 
495.00,0.003021
495.50, 
496.00,0.002960
496.50, 
497.00,0.002914
497.50, 
498.00,0.002869
498.50, 
499.00,0.002869
499.50, 
500.00,0.002762
500.50, 
501.00,0.002716
501.50, 
502.00,0.002655
502.50, 
503.00,0.002609
503.50, 
504.00,0.002579
504.50, 
505.00,0.002518
505.50, 
506.00,0.002472
506.50, 
507.00,0.002441
507.50, 
508.00,0.002396
508.50, 
509.00,0.002335
509.50, 
510.00,0.002304
510.50, 
511.00,0.002213
511.50, 
512.00,0.002213
512.50, 
513.00,0.002136
513.50, 
514.00,0.002167
514.50, 
515.00,0.002075
515.50, 
516.00,0.001984
516.50, 
517.00,0.001923
517.50, 
518.00,0.001953
518.50, 
519.00,0.001907
519.50, 
520.00,0.001938
520.50, 
521.00,0.001907
521.50, 
522.00,0.001801
522.50, 
523.00,0.001709
523.50, 
524.00,0.001663
524.50, 
525.00,0.001740
525.50, 
526.00,0.001740
526.50, 
527.00,0.001648
527.50, 
528.00,0.001602
528.50, 
529.00,0.001617
529.50, 
530.00,0.001617
530.50, 
531.00,0.001556
531.50, 
532.00,0.001495
532.50, 
533.00,0.001404
533.50, 
534.00,0.001389
534.50, 
535.00,0.001358
535.50, 
536.00,0.001205
536.50, 
537.00,0.001175
537.50, 
538.00,0.001205
538.50, 
539.00,0.001160
539.50, 
540.00,0.001129
540.50, 
541.00,0.001114
541.50, 
542.00,0.001038
542.50, 
543.00,0.001129
543.50, 
544.00,0.001068
544.50, 
545.00,0.001053
545.50, 
546.00,0.001007
546.50, 
547.00,0.000961
547.50, 
548.00,0.000946
548.50, 
549.00,0.000961
549.50, 
550.00,0.000931
550.50, 
551.00,0.000931
551.50, 
552.00,0.000900
552.50, 
553.00,0.000900
553.50, 
554.00,0.000961
554.50, 
555.00,0.000854
555.50, 
556.00,0.000763
556.50, 
557.00,0.000763
557.50, 
558.00,0.000793
558.50, 
559.00,0.000778
559.50, 
560.00,0.000809
560.50, 
561.00,0.000778
561.50, 
562.00,0.000732
562.50, 
563.00,0.000702
563.50, 
564.00,0.000656
564.50, 
565.00,0.000717
565.50, 
566.00,0.000671
566.50, 
567.00,0.000656
567.50, 
568.00,0.000687
568.50, 
569.00,0.000641
569.50, 
570.00,0.000641
570.50, 
571.00,0.000626
571.50, 
572.00,0.000580
572.50, 
573.00,0.000534
573.50, 
574.00,0.000565
574.50, 
575.00,0.000549
575.50, 
576.00,0.000565
576.50, 
577.00,0.000549
577.50, 
578.00,0.000549
578.50, 
579.00,0.000504
579.50, 
580.00,0.000443
580.50, 
581.00,0.000458
581.50, 
582.00,0.000412
582.50, 
583.00,0.000397
583.50, 
584.00,0.000397
584.50, 
585.00,0.000427
585.50, 
586.00,0.000412
586.50, 
587.00,0.000412
587.50, 
588.00,0.000427
588.50, 
589.00,0.000351
589.50, 
590.00,0.000336
590.50, 
591.00,0.000336
591.50, 
592.00,0.000336
592.50, 
593.00,0.000351
593.50, 
594.00,0.000290
594.50, 
595.00,0.000305
595.50, 
596.00,0.000336
596.50, 
597.00,0.000336
597.50, 
598.00,0.000366
598.50, 
599.00,0.000366
599.50, 
600.00,0.000320
