"CdS 40 sec - RawData"
"Wavelength nm.","Abs."
200.00,-0.799957
201.00,-2.899796
202.00,-1.196869
203.00,-0.660782
204.00,-0.976212
205.00,-1.369263
206.00,-1.048553
207.00,-1.356415
208.00,-0.670761
209.00,-0.453659
210.00,-1.762100
211.00,-3.466644
212.00,-1.756973
213.00,-1.732162
214.00,-0.503540
215.00,-0.912064
216.00,-2.185455
217.00,-1.083069
218.00,-0.891068
219.00,-2.251846
220.00,-1.565277
221.00,-1.460907
222.00,-2.047501
223.00,-1.752792
224.00,-2.098557
225.00,-2.150711
226.00,-2.001144
227.00,-1.397781
228.00,-0.414368
229.00,-0.067139
230.00,-0.033066
231.00,-0.009079
232.00,0.225006
233.00,0.334335
234.00,0.506012
235.00,0.543259
236.00,0.703827
237.00,0.786377
238.00,0.900101
239.00,1.047668
240.00,1.169083
241.00,1.241623
242.00,1.315231
243.00,1.371872
244.00,1.394791
245.00,1.417450
246.00,1.381073
247.00,1.320724
248.00,1.262848
249.00,1.191650
250.00,1.113815
251.00,1.040222
252.00,0.988876
253.00,0.959015
254.00,0.927521
255.00,0.903564
256.00,0.863281
257.00,0.820099
258.00,0.799911
259.00,0.809464
260.00,0.814819
261.00,0.818970
262.00,0.836548
263.00,0.779175
264.00,0.697495
265.00,0.673065
266.00,0.626694
267.00,0.575851
268.00,0.636932
269.00,0.707031
270.00,0.602219
271.00,0.472610
272.00,0.394119
273.00,0.348373
274.00,0.325821
275.00,0.309326
276.00,0.296616
277.00,0.288132
278.00,0.280548
279.00,0.274445
280.00,0.271210
281.00,0.265533
282.00,0.260254
283.00,0.252930
284.00,0.248001
285.00,0.243042
286.00,0.233032
287.00,0.223694
288.00,0.216400
289.00,0.210846
290.00,0.205170
291.00,0.199600
292.00,0.193710
293.00,0.190842
294.00,0.186523
295.00,0.183167
296.00,0.182236
297.00,0.176498
298.00,0.174194
299.00,0.170105
300.00,0.168396
301.00,0.161148
302.00,0.157394
303.00,0.152618
304.00,0.151169
305.00,0.150314
306.00,0.144409
307.00,0.141418
308.00,0.138535
309.00,0.134552
310.00,0.130798
311.00,0.126740
312.00,0.122528
313.00,0.118790
314.00,0.114029
315.00,0.112000
316.00,0.109146
317.00,0.101593
318.00,0.097626
319.00,0.095963
320.00,0.093582
321.00,0.087036
322.00,0.085800
323.00,0.081696
324.00,0.080109
325.00,0.072830
326.00,0.073822
327.00,0.067978
328.00,0.064240
329.00,0.064224
330.00,0.062988
331.00,0.059341
332.00,0.058456
333.00,0.052765
334.00,0.048676
335.00,0.047287
336.00,0.043930
337.00,0.039047
338.00,0.037704
339.00,0.035797
340.00,0.032135
341.00,0.027786
342.00,0.028336
343.00,0.024582
344.00,0.022705
345.00,0.025040
346.00,0.020111
347.00,0.016129
348.00,0.016800
349.00,0.016418
350.00,0.014786
351.00,0.009003
352.00,0.009460
353.00,0.007767
354.00,0.004898
355.00,0.008377
356.00,0.007614
357.00,0.003937
358.00,0.002686
359.00,-0.000244
360.00,0.001434
361.00,0.001007
362.00,-0.001144
363.00,-0.000992
364.00,-0.005844
365.00,-0.007355
366.00,-0.008972
367.00,-0.007904
368.00,-0.010437
369.00,-0.008102
370.00,-0.010162
371.00,-0.011185
372.00,-0.012146
373.00,-0.013474
374.00,-0.012695
375.00,-0.014618
376.00,-0.018051
377.00,-0.019531
378.00,-0.020340
379.00,-0.020721
380.00,-0.020096
381.00,-0.020111
382.00,-0.021652
383.00,-0.021530
384.00,-0.022568
385.00,-0.024536
386.00,-0.026154
387.00,-0.026886
388.00,-0.028351
389.00,-0.028183
390.00,-0.030060
391.00,-0.031723
392.00,-0.032043
393.00,-0.032516
394.00,-0.033218
395.00,-0.033890
396.00,-0.034668
397.00,-0.034760
398.00,-0.037231
399.00,-0.036942
400.00,-0.037445
401.00,-0.038193
402.00,-0.038544
403.00,-0.038879
404.00,-0.039764
405.00,-0.039871
406.00,-0.040985
407.00,-0.040482
408.00,-0.040604
409.00,-0.041519
410.00,-0.041031
411.00,-0.041336
412.00,-0.041580
413.00,-0.041809
414.00,-0.042175
415.00,-0.042114
416.00,-0.041779
417.00,-0.042206
418.00,-0.041962
419.00,-0.042114
420.00,-0.042099
421.00,-0.042725
422.00,-0.042679
423.00,-0.042587
424.00,-0.042892
425.00,-0.042908
426.00,-0.042801
427.00,-0.043030
428.00,-0.042694
429.00,-0.042435
430.00,-0.042953
431.00,-0.042419
432.00,-0.042633
433.00,-0.042419
434.00,-0.042587
435.00,-0.042633
436.00,-0.042679
437.00,-0.042603
438.00,-0.042374
439.00,-0.042236
440.00,-0.042007
441.00,-0.042313
442.00,-0.042267
443.00,-0.041977
444.00,-0.042007
445.00,-0.041992
446.00,-0.041809
447.00,-0.042038
448.00,-0.041946
449.00,-0.041672
450.00,-0.041504
451.00,-0.041183
452.00,-0.040817
453.00,-0.040955
454.00,-0.040939
455.00,-0.041031
456.00,-0.040787
457.00,-0.040726
458.00,-0.040573
459.00,-0.040482
460.00,-0.040131
461.00,-0.040009
462.00,-0.039993
463.00,-0.039795
464.00,-0.039627
465.00,-0.039444
466.00,-0.039520
467.00,-0.039337
468.00,-0.039185
469.00,-0.039108
470.00,-0.039078
471.00,-0.038727
472.00,-0.038605
473.00,-0.038132
474.00,-0.038025
475.00,-0.038010
476.00,-0.037811
477.00,-0.037811
478.00,-0.037613
479.00,-0.037491
480.00,-0.037292
481.00,-0.037109
482.00,-0.036865
483.00,-0.036636
484.00,-0.036484
485.00,-0.036179
486.00,-0.036072
487.00,-0.035965
488.00,-0.035843
489.00,-0.035568
490.00,-0.035416
491.00,-0.035233
492.00,-0.035080
493.00,-0.034927
494.00,-0.034637
495.00,-0.034363
496.00,-0.034134
497.00,-0.034042
498.00,-0.033737
499.00,-0.033417
500.00,-0.033218
501.00,-0.032990
502.00,-0.032852
503.00,-0.032593
504.00,-0.032333
505.00,-0.032043
506.00,-0.031830
507.00,-0.031601
508.00,-0.031387
509.00,-0.031113
510.00,-0.030762
511.00,-0.030655
512.00,-0.030334
513.00,-0.030090
514.00,-0.030029
515.00,-0.029770
516.00,-0.029633
517.00,-0.029343
518.00,-0.029114
519.00,-0.029037
520.00,-0.028702
521.00,-0.028397
522.00,-0.028137
523.00,-0.028046
524.00,-0.027771
525.00,-0.027466
526.00,-0.027267
527.00,-0.027145
528.00,-0.026825
529.00,-0.026566
530.00,-0.026382
531.00,-0.026123
532.00,-0.026001
533.00,-0.025955
534.00,-0.025665
535.00,-0.025391
536.00,-0.025131
537.00,-0.024612
538.00,-0.024307
539.00,-0.024002
540.00,-0.023880
541.00,-0.023621
542.00,-0.023453
543.00,-0.023254
544.00,-0.023087
545.00,-0.022888
546.00,-0.022629
547.00,-0.022400
548.00,-0.022171
549.00,-0.021927
550.00,-0.021637
551.00,-0.021530
552.00,-0.021347
553.00,-0.021118
554.00,-0.020889
555.00,-0.020828
556.00,-0.020645
557.00,-0.020294
558.00,-0.020035
559.00,-0.019897
560.00,-0.019653
561.00,-0.019470
562.00,-0.019257
563.00,-0.019135
564.00,-0.018951
565.00,-0.018738
566.00,-0.018494
567.00,-0.018387
568.00,-0.018051
569.00,-0.017944
570.00,-0.017685
571.00,-0.017593
572.00,-0.017273
573.00,-0.017120
574.00,-0.016891
575.00,-0.016647
576.00,-0.016510
577.00,-0.016327
578.00,-0.016174
579.00,-0.015900
580.00,-0.015732
581.00,-0.015533
582.00,-0.015411
583.00,-0.015182
584.00,-0.014999
585.00,-0.014786
586.00,-0.014694
587.00,-0.014389
588.00,-0.014130
589.00,-0.013962
590.00,-0.013901
591.00,-0.013657
592.00,-0.013580
593.00,-0.013367
594.00,-0.013184
595.00,-0.013062
596.00,-0.012894
597.00,-0.012726
598.00,-0.012466
599.00,-0.012314
600.00,-0.012131
601.00,-0.010910
602.00,-0.010544
603.00,-0.010361
604.00,-0.010178
605.00,-0.009979
606.00,-0.009735
607.00,-0.009445
608.00,-0.009430
609.00,-0.009125
610.00,-0.009033
611.00,-0.008850
612.00,-0.008621
613.00,-0.008514
614.00,-0.008255
615.00,-0.008087
616.00,-0.007950
617.00,-0.007767
618.00,-0.007660
619.00,-0.007416
620.00,-0.007202
621.00,-0.007034
622.00,-0.006912
623.00,-0.006760
624.00,-0.006683
625.00,-0.006592
626.00,-0.006500
627.00,-0.006241
628.00,-0.006012
629.00,-0.005905
630.00,-0.005722
631.00,-0.005539
632.00,-0.005356
633.00,-0.005157
634.00,-0.004959
635.00,-0.004929
636.00,-0.004837
637.00,-0.004684
638.00,-0.004578
639.00,-0.004501
640.00,-0.004379
641.00,-0.004211
642.00,-0.004059
643.00,-0.003845
644.00,-0.003754
645.00,-0.003632
646.00,-0.003387
647.00,-0.003098
648.00,-0.002899
649.00,-0.002701
650.00,-0.002594
