PE FL                   SPECTRUM    ASCII       PEDS        1.60        
  -1
CDSRT#06.SP
02/03/22
00:32:18.00
02/03/22
00:34:47.00


530.000000
1









LS55
280.00
5.00
5.00
SCAN
1
20
100
100
0
100
0
1
0
1
7
ON
550 310 
1 0 0
#HDR
-1
-1
#GR
NM

0.00002384185791015625
0.0
300.000000
0.500000
461
8
9.320409
0.033363
#DATA
300.000000	0.268000 
300.500000	0.259553 
301.000000	0.245219 
301.500000	0.228810 
302.000000	0.224030 
302.500000	0.229121 
303.000000	0.242969 
303.500000	0.249893 
304.000000	0.255128 
304.500000	0.255189 
305.000000	0.252015 
305.500000	0.255250 
306.000000	0.264939 
306.500000	0.274212 
307.000000	0.281515 
307.500000	0.296901 
308.000000	0.313810 
308.500000	0.317515 
309.000000	0.299863 
309.500000	0.280068 
310.000000	0.275121 
310.500000	0.278204 
311.000000	0.278659 
311.500000	0.270287 
312.000000	0.258295 
312.500000	0.258303 
313.000000	0.275568 
313.500000	0.291113 
314.000000	0.282371 
314.500000	0.259863 
315.000000	0.247886 
315.500000	0.251909 
316.000000	0.257393 
316.500000	0.250568 
317.000000	0.243984 
317.500000	0.245901 
318.000000	0.259242 
318.500000	0.259325 
319.000000	0.246151 
319.500000	0.227060 
320.000000	0.224265 
320.500000	0.224348 
321.000000	0.219946 
321.500000	0.204636 
322.000000	0.200106 
322.500000	0.197787 
323.000000	0.193598 
323.500000	0.183446 
324.000000	0.180848 
324.500000	0.185871 
325.000000	0.187787 
325.500000	0.179424 
326.000000	0.171280 
326.500000	0.173575 
327.000000	0.169386 
327.500000	0.163613 
328.000000	0.153295 
328.500000	0.152136 
329.000000	0.144204 
329.500000	0.141060 
330.000000	0.134825 
330.500000	0.139651 
331.000000	0.137174 
331.500000	0.138825 
332.000000	0.136939 
332.500000	0.137939 
333.000000	0.130515 
333.500000	0.114810 
334.000000	0.105212 
334.500000	0.109325 
335.000000	0.117507 
335.500000	0.113757 
336.000000	0.107462 
336.500000	0.104454 
337.000000	0.104666 
337.500000	0.096462 
338.000000	0.085939 
338.500000	0.075318 
339.000000	0.068999 
339.500000	0.067007 
340.000000	0.069962 
340.500000	0.069234 
341.000000	0.065030 
341.500000	0.061325 
342.000000	0.061795 
342.500000	0.061189 
343.000000	0.058106 
343.500000	0.056060 
344.000000	0.057446 
344.500000	0.058840 
345.000000	0.059636 
345.500000	0.055568 
346.000000	0.047030 
346.500000	0.041878 
347.000000	0.043189 
347.500000	0.049250 
348.000000	0.057022 
348.500000	0.060340 
349.000000	0.057121 
349.500000	0.044446 
350.000000	0.037333 
350.500000	0.045939 
351.000000	0.060265 
351.500000	0.059393 
352.000000	0.046825 
352.500000	0.043848 
353.000000	0.049469 
353.500000	0.058462 
354.000000	0.050234 
354.500000	0.042159 
355.000000	0.033363 
355.500000	0.035371 
356.000000	0.040643 
356.500000	0.050363 
357.000000	0.051007 
357.500000	0.044015 
358.000000	0.040871 
358.500000	0.048992 
359.000000	0.058575 
359.500000	0.060560 
360.000000	0.054007 
360.500000	0.055386 
361.000000	0.065113 
361.500000	0.076015 
362.000000	0.076704 
362.500000	0.075295 
363.000000	0.077931 
363.500000	0.084734 
364.000000	0.085818 
364.500000	0.080181 
365.000000	0.071075 
365.500000	0.070606 
366.000000	0.079818 
366.500000	0.094128 
367.000000	0.098689 
367.500000	0.097719 
368.000000	0.093348 
368.500000	0.086583 
369.000000	0.083356 
369.500000	0.083174 
370.000000	0.092174 
370.500000	0.094386 
371.000000	0.096727 
371.500000	0.099833 
372.000000	0.111636 
372.500000	0.123560 
373.000000	0.133545 
373.500000	0.140113 
374.000000	0.149553 
374.500000	0.162356 
375.000000	0.174507 
375.500000	0.189833 
376.000000	0.208522 
376.500000	0.220803 
377.000000	0.223681 
377.500000	0.220136 
378.000000	0.229378 
378.500000	0.250356 
379.000000	0.284204 
379.500000	0.309575 
380.000000	0.323772 
380.500000	0.315568 
381.000000	0.310977 
381.500000	0.315522 
382.000000	0.346174 
382.500000	0.370969 
383.000000	0.378613 
383.500000	0.372409 
384.000000	0.397469 
384.500000	0.439719 
385.000000	0.466962 
385.500000	0.457780 
386.000000	0.447750 
386.500000	0.471530 
387.000000	0.511477 
387.500000	0.540810 
388.000000	0.553424 
388.500000	0.573553 
389.000000	0.596393 
389.500000	0.610704 
390.000000	0.620818 
390.500000	0.650113 
391.000000	0.693765 
391.500000	0.711681 
392.000000	0.709598 
392.500000	0.710901 
393.000000	0.724439 
393.500000	0.744090 
394.000000	0.762530 
394.500000	0.777219 
395.000000	0.791393 
395.500000	0.809742 
396.000000	0.836022 
396.500000	0.876606 
397.000000	0.911348 
397.500000	0.929621 
398.000000	0.944575 
398.500000	0.965128 
399.000000	0.994242 
399.500000	1.025431 
400.000000	1.062416 
400.500000	1.099886 
401.000000	1.135325 
401.500000	1.146060 
402.000000	1.174484 
402.500000	1.215310 
403.000000	1.260000 
403.500000	1.283704 
404.000000	1.310833 
404.500000	1.352537 
405.000000	1.414363 
405.500000	1.463166 
406.000000	1.476954 
406.500000	1.471083 
407.000000	1.487151 
407.500000	1.538348 
408.000000	1.608053 
408.500000	1.656219 
409.000000	1.693212 
409.500000	1.729530 
410.000000	1.782416 
410.500000	1.827674 
411.000000	1.856712 
411.500000	1.861007 
412.000000	1.885446 
412.500000	1.949287 
413.000000	2.068265 
413.500000	2.171984 
414.000000	2.239643 
414.500000	2.264037 
415.000000	2.316219 
415.500000	2.374962 
416.000000	2.434159 
416.500000	2.486863 
417.000000	2.579204 
417.500000	2.685803 
418.000000	2.764068 
418.500000	2.803901 
419.000000	2.849083 
419.500000	2.918613 
420.000000	2.991469 
420.500000	3.058704 
421.000000	3.127310 
421.500000	3.220015 
422.000000	3.330507 
422.500000	3.435128 
423.000000	3.522136 
423.500000	3.581477 
424.000000	3.624772 
424.500000	3.661477 
425.000000	3.716204 
425.500000	3.804234 
426.000000	3.901068 
426.500000	3.970606 
427.000000	3.967159 
427.500000	3.949537 
428.000000	3.977939 
428.500000	4.068946 
429.000000	4.110916 
429.500000	4.117984 
430.000000	4.158931 
430.500000	4.297856 
431.000000	4.464560 
431.500000	4.566030 
432.000000	4.594598 
432.500000	4.590136 
433.000000	4.632250 
433.500000	4.702886 
434.000000	4.800439 
434.500000	4.827409 
435.000000	4.861462 
435.500000	4.860696 
436.000000	4.920143 
436.500000	4.968772 
437.000000	5.063583 
437.500000	5.169454 
438.000000	5.327356 
438.500000	5.441871 
439.000000	5.499181 
439.500000	5.499833 
440.000000	5.537242 
440.500000	5.631159 
441.000000	5.708681 
441.500000	5.713833 
442.000000	5.711553 
442.500000	5.744878 
443.000000	5.818401 
443.500000	5.899454 
444.000000	5.979939 
444.500000	6.093098 
445.000000	6.192765 
445.500000	6.234439 
446.000000	6.235250 
446.500000	6.285068 
447.000000	6.348636 
447.500000	6.409765 
448.000000	6.409462 
448.500000	6.402818 
449.000000	6.450984 
449.500000	6.556469 
450.000000	6.646340 
450.500000	6.708037 
451.000000	6.733378 
451.500000	6.757606 
452.000000	6.791674 
452.500000	6.853924 
453.000000	6.870636 
453.500000	6.873424 
454.000000	6.852636 
454.500000	6.933939 
455.000000	7.056893 
455.500000	7.148689 
456.000000	7.126378 
456.500000	7.082537 
457.000000	7.069901 
457.500000	7.138530 
458.000000	7.241840 
458.500000	7.325818 
459.000000	7.366007 
459.500000	7.378568 
460.000000	7.427757 
460.500000	7.492643 
461.000000	7.502681 
461.500000	7.435151 
462.000000	7.371515 
462.500000	7.368757 
463.000000	7.417121 
463.500000	7.481053 
464.000000	7.529386 
464.500000	7.554234 
465.000000	7.566916 
465.500000	7.635848 
466.000000	7.702196 
466.500000	7.730560 
467.000000	7.689568 
467.500000	7.673750 
468.000000	7.705621 
468.500000	7.830219 
469.000000	7.914416 
469.500000	7.950719 
470.000000	7.912060 
470.500000	7.905606 
471.000000	7.917356 
471.500000	7.961651 
472.000000	7.992780 
472.500000	8.009484 
473.000000	7.991962 
473.500000	7.990386 
474.000000	8.041045 
474.500000	8.139712 
475.000000	8.249696 
475.500000	8.318386 
476.000000	8.280704 
476.500000	8.223621 
477.000000	8.236136 
477.500000	8.325871 
478.000000	8.369825 
478.500000	8.373666 
479.000000	8.378280 
479.500000	8.448015 
480.000000	8.558553 
480.500000	8.679810 
481.000000	8.741454 
481.500000	8.778348 
482.000000	8.890659 
482.500000	9.059007 
483.000000	9.199037 
483.500000	9.235833 
484.000000	9.283242 
484.500000	9.320409 
485.000000	9.288249 
485.500000	9.140999 
486.000000	8.996106 
486.500000	8.905242 
487.000000	8.855825 
487.500000	8.798068 
488.000000	8.709439 
488.500000	8.634234 
489.000000	8.562401 
489.500000	8.480719 
490.000000	8.370287 
490.500000	8.267159 
491.000000	8.248007 
491.500000	8.289053 
492.000000	8.284651 
492.500000	8.188060 
493.000000	8.061439 
493.500000	7.993984 
494.000000	7.945303 
494.500000	7.896393 
495.000000	7.805204 
495.500000	7.702242 
496.000000	7.597409 
496.500000	7.560371 
497.000000	7.546606 
497.500000	7.538727 
498.000000	7.485075 
498.500000	7.454734 
499.000000	7.453181 
499.500000	7.474212 
500.000000	7.415810 
500.500000	7.300333 
501.000000	7.149931 
501.500000	7.072946 
502.000000	7.066439 
502.500000	7.094371 
503.000000	7.103954 
503.500000	7.097537 
504.000000	7.054787 
504.500000	7.006984 
505.000000	6.925219 
505.500000	6.849181 
506.000000	6.763674 
506.500000	6.710424 
507.000000	6.664159 
507.500000	6.633098 
508.000000	6.585939 
508.500000	6.543356 
509.000000	6.501227 
509.500000	6.441666 
510.000000	6.376575 
510.500000	6.321734 
511.000000	6.294113 
511.500000	6.263318 
512.000000	6.223893 
512.500000	6.175969 
513.000000	6.113553 
513.500000	6.060280 
514.000000	6.034522 
514.500000	6.017734 
515.000000	5.947893 
515.500000	5.832234 
516.000000	5.737371 
516.500000	5.707772 
517.000000	5.723083 
517.500000	5.747303 
518.000000	5.724462 
518.500000	5.643045 
519.000000	5.576712 
519.500000	5.576916 
520.000000	5.594833 
520.500000	5.536469 
521.000000	5.451742 
521.500000	5.383780 
522.000000	5.336643 
522.500000	5.249787 
523.000000	5.192196 
523.500000	5.192356 
524.000000	5.229651 
524.500000	5.235840 
525.000000	5.194772 
525.500000	5.159969 
526.000000	5.143750 
526.500000	5.186272 
527.000000	5.243340 
527.500000	5.245818 
528.000000	5.148219 
528.500000	5.010143 
529.000000	4.949000 
529.500000	5.014469 
530.000000	5.165000 

