PE FL                   SPECTRUM    ASCII       PEDS        1.60        
  -1
CDSRT#02.SP
02/03/22
00:23:04.00
02/03/22
00:24:43.00


400.000000
1









LS55
450.00
5.00
5.00
SCAN
1
20
100
100
0
100
0
0
0
1
7
ON
490 450 
1 0 0
#HDR
-1
-1
#GR
NM

0.00002384185791015625
0.0
250.000000
0.500000
301
8
37.769469
4.736000
#DATA
250.000000	4.736000  
250.500000	5.148280  
251.000000	5.408575  
251.500000	5.514772  
252.000000	5.559257  
252.500000	5.641378  
253.000000	5.711803  
253.500000	5.779545  
254.000000	5.780530  
254.500000	5.785030  
255.000000	5.794818  
255.500000	5.839386  
256.000000	5.879696  
256.500000	5.921696  
257.000000	5.932181  
257.500000	5.950151  
258.000000	5.935583  
258.500000	5.887045  
259.000000	5.822303  
259.500000	5.811772  
260.000000	5.870113  
260.500000	5.956893  
261.000000	6.027045  
261.500000	6.083090  
262.000000	6.160651  
262.500000	6.253727  
263.000000	6.350174  
263.500000	6.414227  
264.000000	6.486492  
264.500000	6.597651  
265.000000	6.734795  
265.500000	6.822212  
266.000000	6.858454  
266.500000	6.861628  
267.000000	6.854689  
267.500000	6.854363  
268.000000	6.906143  
268.500000	6.940795  
269.000000	6.936257  
269.500000	6.902727  
270.000000	6.922734  
270.500000	6.962856  
271.000000	6.986681  
271.500000	6.996492  
272.000000	7.061386  
272.500000	7.115454  
273.000000	7.165431  
273.500000	7.189424  
274.000000	7.233469  
274.500000	7.223727  
275.000000	7.196712  
275.500000	7.156060  
276.000000	7.141719  
276.500000	7.135219  
277.000000	7.136719  
277.500000	7.147530  
278.000000	7.116287  
278.500000	7.079257  
279.000000	7.034893  
279.500000	7.033901  
280.000000	6.992022  
280.500000	6.925310  
281.000000	6.850977  
281.500000	6.821765  
282.000000	6.838840  
282.500000	6.839750  
283.000000	6.774818  
283.500000	6.658371  
284.000000	6.618083  
284.500000	6.659553  
285.000000	6.708590  
285.500000	6.637886  
286.000000	6.499462  
286.500000	6.397833  
287.000000	6.395560  
287.500000	6.444681  
288.000000	6.451022  
288.500000	6.387583  
289.000000	6.313462  
289.500000	6.267393  
290.000000	6.237219  
290.500000	6.189287  
291.000000	6.135522  
291.500000	6.110613  
292.000000	6.099560  
292.500000	6.106196  
293.000000	6.158537  
293.500000	6.243371  
294.000000	6.322833  
294.500000	6.373348  
295.000000	6.428098  
295.500000	6.498469  
296.000000	6.584924  
296.500000	6.698575  
297.000000	6.879068  
297.500000	7.098439  
298.000000	7.293704  
298.500000	7.517674  
299.000000	7.765825  
299.500000	8.071833  
300.000000	8.366886  
300.500000	8.687962  
301.000000	8.975106  
301.500000	9.217848  
302.000000	9.415060  
302.500000	9.613810  
303.000000	9.805378  
303.500000	9.999999  
304.000000	10.204212 
304.500000	10.404856 
305.000000	10.561121 
305.500000	10.683969 
306.000000	10.797340 
306.500000	10.927613 
307.000000	11.030189 
307.500000	11.145734 
308.000000	11.255007 
308.500000	11.378992 
309.000000	11.420568 
309.500000	11.389977 
310.000000	11.337416 
310.500000	11.395340 
311.000000	11.535500 
311.500000	11.658848 
312.000000	11.707416 
312.500000	11.702613 
313.000000	11.762234 
313.500000	11.831886 
314.000000	11.915257 
314.500000	11.915151 
315.000000	11.928454 
315.500000	11.984909 
316.000000	12.151590 
316.500000	12.311227 
317.000000	12.362500 
317.500000	12.290439 
318.000000	12.225030 
318.500000	12.298787 
319.000000	12.441219 
319.500000	12.561174 
320.000000	12.594181 
320.500000	12.682613 
321.000000	12.800462 
321.500000	12.933250 
322.000000	13.019545 
322.500000	13.136909 
323.000000	13.266333 
323.500000	13.373712 
324.000000	13.415613 
324.500000	13.473030 
325.000000	13.591310 
325.500000	13.745189 
326.000000	13.862250 
326.500000	13.922083 
327.000000	13.989833 
327.500000	14.163537 
328.000000	14.398803 
328.500000	14.607037 
329.000000	14.702560 
329.500000	14.737545 
330.000000	14.804045 
330.500000	14.983651 
331.000000	15.204507 
331.500000	15.402053 
332.000000	15.530704 
332.500000	15.687348 
333.000000	15.871946 
333.500000	16.017848 
334.000000	16.122196 
334.500000	16.238704 
335.000000	16.432386 
335.500000	16.660454 
336.000000	16.865439 
336.500000	17.014143 
337.000000	17.125234 
337.500000	17.264643 
338.000000	17.412477 
338.500000	17.569825 
339.000000	17.661007 
339.500000	17.773742 
340.000000	17.881734 
340.500000	18.050257 
341.000000	18.248681 
341.500000	18.466272 
342.000000	18.588363 
342.500000	18.621393 
343.000000	18.652174 
343.500000	18.794204 
344.000000	19.029007 
344.500000	19.304492 
345.000000	19.523159 
345.500000	19.646227 
346.000000	19.773992 
346.500000	20.007060 
347.000000	20.323401 
347.500000	20.591621 
348.000000	20.742893 
348.500000	20.910833 
349.000000	21.204780 
349.500000	21.601303 
350.000000	21.923643 
350.500000	22.156939 
351.000000	22.420265 
351.500000	22.770075 
352.000000	23.098787 
352.500000	23.326500 
353.000000	23.537666 
353.500000	23.836537 
354.000000	24.226590 
354.500000	24.604090 
355.000000	24.921492 
355.500000	25.172219 
356.000000	25.452507 
356.500000	25.764386 
357.000000	26.131462 
357.500000	26.465340 
358.000000	26.778424 
358.500000	27.019598 
359.000000	27.297628 
359.500000	27.612424 
360.000000	27.989803 
360.500000	28.371106 
361.000000	28.730856 
361.500000	29.017856 
362.000000	29.233007 
362.500000	29.434643 
363.000000	29.711227 
363.500000	30.048174 
364.000000	30.385674 
364.500000	30.659378 
365.000000	30.875439 
365.500000	31.081212 
366.000000	31.307242 
366.500000	31.542265 
367.000000	31.771833 
367.500000	32.048083 
368.000000	32.309113 
368.500000	32.503772 
369.000000	32.671409 
369.500000	32.897143 
370.000000	33.182143 
370.500000	33.489257 
371.000000	33.751439 
371.500000	33.987939 
372.000000	34.202386 
372.500000	34.410878 
373.000000	34.592219 
373.500000	34.865303 
374.000000	35.200704 
374.500000	35.542795 
375.000000	35.697886 
375.500000	35.763537 
376.000000	35.829159 
376.500000	36.033356 
377.000000	36.287810 
377.500000	36.593151 
378.000000	36.851757 
378.500000	36.989257 
379.000000	37.002545 
379.500000	37.010348 
380.000000	37.046462 
380.500000	37.138030 
381.000000	37.273340 
381.500000	37.440386 
382.000000	37.541946 
382.500000	37.623651 
383.000000	37.670856 
383.500000	37.742234 
384.000000	37.760840 
384.500000	37.769469 
385.000000	37.734393 
385.500000	37.650946 
386.000000	37.440916 
386.500000	37.247159 
387.000000	37.148424 
387.500000	37.100719 
388.000000	36.976530 
388.500000	36.735143 
389.000000	36.466871 
389.500000	36.242174 
390.000000	36.025257 
390.500000	35.773954 
391.000000	35.522000 
391.500000	35.299416 
392.000000	35.129424 
392.500000	34.980068 
393.000000	34.741053 
393.500000	34.390583 
394.000000	33.965643 
394.500000	33.604742 
395.000000	33.310553 
395.500000	33.043265 
396.000000	32.712053 
396.500000	32.354787 
397.000000	32.037143 
397.500000	31.820212 
398.000000	31.611083 
398.500000	31.288174 
399.000000	30.882446 
399.500000	30.565893 
400.000000	30.396000 

