PE FL                   SPECTRUM    ASCII       PEDS        1.60        
  -1
CDSRT#01.SP
02/03/22
00:20:54.00
02/03/22
00:22:38.00


450.000000
1









LS55
490.00
5.00
5.00
SCAN
1
20
100
100
0
100
0
0
0
1
7
ON
490 450 
1 0 0
#HDR
-1
-1
#GR
NM

0.00002384185791015625
0.0
300.000000
0.500000
301
8
42.422659
10.694000
#DATA
300.000000	10.694000 
300.500000	11.161386 
301.000000	11.542128 
301.500000	11.818840 
302.000000	12.053606 
302.500000	12.302742 
303.000000	12.592053 
303.500000	12.881151 
304.000000	13.136340 
304.500000	13.333295 
305.000000	13.493090 
305.500000	13.647356 
306.000000	13.828219 
306.500000	13.979189 
307.000000	14.095159 
307.500000	14.154113 
308.000000	14.293348 
308.500000	14.449227 
309.000000	14.603469 
309.500000	14.633825 
310.000000	14.705295 
310.500000	14.804651 
311.000000	14.957015 
311.500000	15.033750 
312.000000	15.115810 
312.500000	15.183393 
313.000000	15.279106 
313.500000	15.401363 
314.000000	15.531265 
314.500000	15.622128 
315.000000	15.663272 
315.500000	15.714954 
316.000000	15.789840 
316.500000	15.914204 
317.000000	16.036189 
317.500000	16.188431 
318.000000	16.276772 
318.500000	16.353151 
319.000000	16.434204 
319.500000	16.590598 
320.000000	16.764333 
320.500000	16.899962 
321.000000	16.960893 
321.500000	17.031825 
322.000000	17.183621 
322.500000	17.348204 
323.000000	17.509871 
323.500000	17.618939 
324.000000	17.697416 
324.500000	17.739643 
325.000000	17.837303 
325.500000	17.993969 
326.000000	18.193530 
326.500000	18.336719 
327.000000	18.480310 
327.500000	18.634946 
328.000000	18.843333 
328.500000	19.004000 
329.000000	19.185628 
329.500000	19.339098 
330.000000	19.540371 
330.500000	19.725734 
331.000000	19.876530 
331.500000	19.965439 
332.000000	20.120734 
332.500000	20.358401 
333.000000	20.619196 
333.500000	20.807166 
334.000000	20.942409 
334.500000	21.105507 
335.000000	21.278871 
335.500000	21.426954 
336.000000	21.586325 
336.500000	21.789272 
337.000000	21.985499 
337.500000	22.120053 
338.000000	22.237106 
338.500000	22.434537 
339.000000	22.712265 
339.500000	22.979545 
340.000000	23.201333 
340.500000	23.443787 
341.000000	23.700916 
341.500000	23.897007 
342.000000	23.944946 
342.500000	23.982878 
343.000000	24.076060 
343.500000	24.317287 
344.000000	24.643454 
344.500000	25.004310 
345.000000	25.304636 
345.500000	25.495227 
346.000000	25.645303 
346.500000	25.843424 
347.000000	26.157446 
347.500000	26.471924 
348.000000	26.824143 
348.500000	27.165492 
349.000000	27.546636 
349.500000	27.820946 
350.000000	28.045234 
350.500000	28.275909 
351.000000	28.685106 
351.500000	29.056030 
352.000000	29.362492 
352.500000	29.554250 
353.000000	29.813424 
353.500000	30.101189 
354.000000	30.442962 
354.500000	30.800318 
355.000000	31.208272 
355.500000	31.582143 
356.000000	31.876257 
356.500000	32.138954 
357.000000	32.451424 
357.500000	32.847015 
358.000000	33.240439 
358.500000	33.536037 
359.000000	33.845083 
359.500000	34.213507 
360.000000	34.599257 
360.500000	34.860651 
361.000000	35.029712 
361.500000	35.221477 
362.000000	35.607719 
362.500000	36.086909 
363.000000	36.494727 
363.500000	36.776598 
364.000000	37.039325 
364.500000	37.330363 
365.000000	37.567613 
365.500000	37.790128 
366.000000	38.008022 
366.500000	38.289674 
367.000000	38.547628 
367.500000	38.842371 
368.000000	39.111545 
368.500000	39.359833 
369.000000	39.532810 
369.500000	39.659500 
370.000000	39.774507 
370.500000	39.929840 
371.000000	40.204242 
371.500000	40.456250 
372.000000	40.688424 
372.500000	40.785621 
373.000000	40.884765 
373.500000	40.987234 
374.000000	41.235363 
374.500000	41.472848 
375.000000	41.665962 
375.500000	41.822333 
376.000000	42.031939 
376.500000	42.218878 
377.000000	42.248598 
377.500000	42.192068 
378.000000	42.195840 
378.500000	42.303946 
379.000000	42.385128 
379.500000	42.373090 
380.000000	42.335015 
380.500000	42.375272 
381.000000	42.422659 
381.500000	42.384143 
382.000000	42.255977 
382.500000	42.156606 
383.000000	42.115303 
383.500000	42.095424 
384.000000	42.002287 
384.500000	41.802606 
385.000000	41.477719 
385.500000	41.162295 
386.000000	40.993840 
386.500000	40.957083 
387.000000	40.781969 
387.500000	40.467765 
388.000000	40.132378 
388.500000	39.922575 
389.000000	39.727151 
389.500000	39.434462 
390.000000	39.074257 
390.500000	38.715303 
391.000000	38.435242 
391.500000	38.218674 
392.000000	38.042530 
392.500000	37.766121 
393.000000	37.382507 
393.500000	37.003303 
394.000000	36.632818 
394.500000	36.274424 
395.000000	35.853704 
395.500000	35.441545 
396.000000	35.105924 
396.500000	34.824954 
397.000000	34.548939 
397.500000	34.283159 
398.000000	34.034500 
398.500000	33.715128 
399.000000	33.312492 
399.500000	32.911704 
400.000000	32.592969 
400.500000	32.338810 
401.000000	32.009128 
401.500000	31.714613 
402.000000	31.396803 
402.500000	31.060553 
403.000000	30.668606 
403.500000	30.423681 
404.000000	30.275522 
404.500000	30.074795 
405.000000	29.739621 
405.500000	29.390007 
406.000000	29.108325 
406.500000	28.893348 
407.000000	28.742863 
407.500000	28.596954 
408.000000	28.424772 
408.500000	28.239893 
409.000000	28.009030 
409.500000	27.526969 
410.000000	26.813795 
410.500000	26.214409 
411.000000	25.987916 
411.500000	25.942204 
412.000000	25.779613 
412.500000	25.528810 
413.000000	25.313598 
413.500000	25.160022 
414.000000	24.987439 
414.500000	24.826553 
415.000000	24.619924 
415.500000	24.458704 
416.000000	24.300962 
416.500000	24.186060 
417.000000	24.038484 
417.500000	23.949227 
418.000000	23.881856 
418.500000	23.863469 
419.000000	23.857159 
419.500000	23.873280 
420.000000	23.842325 
420.500000	23.716772 
421.000000	23.571318 
421.500000	23.467492 
422.000000	23.434568 
422.500000	23.382159 
423.000000	23.308280 
423.500000	23.212280 
424.000000	23.140303 
424.500000	23.157924 
425.000000	23.191568 
425.500000	23.190590 
426.000000	23.116280 
426.500000	23.026113 
427.000000	22.985484 
427.500000	23.007962 
428.000000	23.053060 
428.500000	23.087871 
429.000000	23.130181 
429.500000	23.190704 
430.000000	23.248946 
430.500000	23.258856 
431.000000	23.214984 
431.500000	23.210000 
432.000000	23.185681 
432.500000	23.148000 
433.000000	23.066045 
433.500000	23.084378 
434.000000	23.135053 
434.500000	23.136727 
435.000000	23.066446 
435.500000	23.059303 
436.000000	23.105810 
436.500000	23.134780 
437.000000	23.094075 
437.500000	23.118962 
438.000000	23.230992 
438.500000	23.313780 
439.000000	23.264295 
439.500000	23.142386 
440.000000	23.093303 
440.500000	23.135386 
441.000000	23.251416 
441.500000	23.300659 
442.000000	23.324446 
442.500000	23.327621 
443.000000	23.369371 
443.500000	23.417674 
444.000000	23.418962 
444.500000	23.405409 
445.000000	23.421439 
445.500000	23.497250 
446.000000	23.519810 
446.500000	23.507575 
447.000000	23.560295 
447.500000	23.727643 
448.000000	23.954984 
448.500000	24.120113 
449.000000	24.204022 
449.500000	24.122992 
450.000000	23.897000 

