PE FL                   SPECTRUM    ASCII       PEDS        1.60        
  -1
CDSRT#03.SP
02/03/22
00:24:53.00
02/03/22
00:26:30.00


400.000000
1









LS55
420.00
5.00
5.00
SCAN
1
20
100
100
0
100
0
0
0
1
7
ON
450 400 
1 0 0
#HDR
-1
-1
#GR
NM

0.00002384185791015625
0.0
250.000000
0.500000
301
8
18.439000
1.949000
#DATA
250.000000	1.949000  
250.500000	2.180954  
251.000000	2.320863  
251.500000	2.392810  
252.000000	2.476030  
252.500000	2.571969  
253.000000	2.608196  
253.500000	2.590348  
254.000000	2.578250  
254.500000	2.586727  
255.000000	2.617424  
255.500000	2.596742  
256.000000	2.555704  
256.500000	2.506590  
257.000000	2.475287  
257.500000	2.456439  
258.000000	2.482734  
258.500000	2.534537  
259.000000	2.569196  
259.500000	2.571113  
260.000000	2.550765  
260.500000	2.547984  
261.000000	2.557492  
261.500000	2.615333  
262.000000	2.687840  
262.500000	2.747818  
263.000000	2.776553  
263.500000	2.811787  
264.000000	2.854234  
264.500000	2.900393  
265.000000	2.944022  
265.500000	2.989068  
266.000000	3.015939  
266.500000	3.025045  
267.000000	3.044371  
267.500000	3.079333  
268.000000	3.082446  
268.500000	3.063219  
269.000000	3.055712  
269.500000	3.076666  
270.000000	3.088575  
270.500000	3.071666  
271.000000	3.050106  
271.500000	3.060265  
272.000000	3.080053  
272.500000	3.107924  
273.000000	3.136689  
273.500000	3.168992  
274.000000	3.163939  
274.500000	3.151272  
275.000000	3.175977  
275.500000	3.222416  
276.000000	3.218787  
276.500000	3.157462  
277.000000	3.110075  
277.500000	3.099568  
278.000000	3.108795  
278.500000	3.154636  
279.000000	3.198371  
279.500000	3.221712  
280.000000	3.175742  
280.500000	3.150136  
281.000000	3.143121  
281.500000	3.141060  
282.000000	3.094613  
282.500000	3.049772  
283.000000	3.021977  
283.500000	3.008719  
284.000000	2.975878  
284.500000	2.941500  
285.000000	2.922598  
285.500000	2.931128  
286.000000	2.921553  
286.500000	2.913810  
287.000000	2.895310  
287.500000	2.854257  
288.000000	2.778878  
288.500000	2.705825  
289.000000	2.680424  
289.500000	2.675825  
290.000000	2.650356  
290.500000	2.605257  
291.000000	2.607886  
291.500000	2.644681  
292.000000	2.665075  
292.500000	2.639181  
293.000000	2.622166  
293.500000	2.635431  
294.000000	2.659545  
294.500000	2.677174  
295.000000	2.714537  
295.500000	2.755098  
296.000000	2.785909  
296.500000	2.823098  
297.000000	2.878348  
297.500000	2.950280  
298.000000	3.039340  
298.500000	3.136492  
299.000000	3.268833  
299.500000	3.416901  
300.000000	3.567780  
300.500000	3.676681  
301.000000	3.741522  
301.500000	3.798750  
302.000000	3.870696  
302.500000	3.960022  
303.000000	4.066416  
303.500000	4.195250  
304.000000	4.314795  
304.500000	4.412727  
305.000000	4.477628  
305.500000	4.500181  
306.000000	4.528606  
306.500000	4.570318  
307.000000	4.651727  
307.500000	4.719712  
308.000000	4.778015  
308.500000	4.814636  
309.000000	4.819522  
309.500000	4.804492  
310.000000	4.776151  
310.500000	4.752022  
311.000000	4.688128  
311.500000	4.639181  
312.000000	4.611166  
312.500000	4.636393  
313.000000	4.650727  
313.500000	4.660522  
314.000000	4.666507  
314.500000	4.699765  
315.000000	4.712242  
315.500000	4.715734  
316.000000	4.711840  
316.500000	4.748060  
317.000000	4.772946  
317.500000	4.780136  
318.000000	4.749371  
318.500000	4.751492  
319.000000	4.805196  
319.500000	4.894265  
320.000000	4.973363  
320.500000	4.998583  
321.000000	4.996477  
321.500000	5.001098  
322.000000	5.038863  
322.500000	5.073204  
323.000000	5.082212  
323.500000	5.066712  
324.000000	5.100174  
324.500000	5.191530  
325.000000	5.287007  
325.500000	5.339651  
326.000000	5.371469  
326.500000	5.422893  
327.000000	5.485257  
327.500000	5.549613  
328.000000	5.602719  
328.500000	5.660583  
329.000000	5.725386  
329.500000	5.794212  
330.000000	5.844568  
330.500000	5.879848  
331.000000	5.959628  
331.500000	6.071606  
332.000000	6.194507  
332.500000	6.263840  
333.000000	6.299946  
333.500000	6.340143  
334.000000	6.405606  
334.500000	6.502537  
335.000000	6.602939  
335.500000	6.696901  
336.000000	6.768931  
336.500000	6.820053  
337.000000	6.839606  
337.500000	6.891522  
338.000000	6.980454  
338.500000	7.083068  
339.000000	7.160500  
339.500000	7.224098  
340.000000	7.304984  
340.500000	7.410143  
341.000000	7.505803  
341.500000	7.567159  
342.000000	7.622992  
342.500000	7.699848  
343.000000	7.788606  
343.500000	7.849522  
344.000000	7.908401  
344.500000	7.980439  
345.000000	8.071931  
345.500000	8.161727  
346.000000	8.214643  
346.500000	8.274553  
347.000000	8.389787  
347.500000	8.586962  
348.000000	8.783818  
348.500000	8.943409  
349.000000	9.044901  
349.500000	9.149780  
350.000000	9.238545  
350.500000	9.331712  
351.000000	9.482628  
351.500000	9.649303  
352.000000	9.793007  
352.500000	9.855537  
353.000000	9.949696  
353.500000	10.097287 
354.000000	10.312984 
354.500000	10.481659 
355.000000	10.596196 
355.500000	10.717651 
356.000000	10.878371 
356.500000	11.084401 
357.000000	11.239765 
357.500000	11.339924 
358.000000	11.372863 
358.500000	11.502227 
359.000000	11.704681 
359.500000	11.925272 
360.000000	12.069916 
360.500000	12.192977 
361.000000	12.378560 
361.500000	12.582431 
362.000000	12.755560 
362.500000	12.871098 
363.000000	12.997560 
363.500000	13.106636 
364.000000	13.242750 
364.500000	13.347787 
365.000000	13.440045 
365.500000	13.510416 
366.000000	13.584000 
366.500000	13.669515 
367.000000	13.797424 
367.500000	13.996704 
368.000000	14.221166 
368.500000	14.391537 
369.000000	14.463848 
369.500000	14.510977 
370.000000	14.566621 
370.500000	14.690053 
371.000000	14.851250 
371.500000	15.002378 
372.000000	15.110257 
372.500000	15.235931 
373.000000	15.407492 
373.500000	15.591310 
374.000000	15.738643 
374.500000	15.866469 
375.000000	16.006909 
375.500000	16.129128 
376.000000	16.210901 
376.500000	16.284250 
377.000000	16.421886 
377.500000	16.650015 
378.000000	16.860863 
378.500000	16.965606 
379.000000	17.016833 
379.500000	17.066348 
380.000000	17.131068 
380.500000	17.160840 
381.000000	17.237166 
381.500000	17.357000 
382.000000	17.490977 
382.500000	17.577068 
383.000000	17.652401 
383.500000	17.731530 
384.000000	17.763696 
384.500000	17.725189 
385.000000	17.657151 
385.500000	17.703310 
386.000000	17.817484 
386.500000	17.912568 
387.000000	17.878007 
387.500000	17.795621 
388.000000	17.773522 
388.500000	17.817060 
389.000000	17.853424 
389.500000	17.848666 
390.000000	17.804856 
390.500000	17.807227 
391.000000	17.843666 
391.500000	17.863318 
392.000000	17.796212 
392.500000	17.704818 
393.000000	17.626590 
393.500000	17.612287 
394.000000	17.630371 
394.500000	17.677924 
395.000000	17.696886 
395.500000	17.717924 
396.000000	17.727053 
396.500000	17.753734 
397.000000	17.778878 
397.500000	17.857621 
398.000000	17.982371 
398.500000	18.094803 
399.000000	18.152219 
399.500000	18.254303 
400.000000	18.439000 

