PE FL                   SPECTRUM    ASCII       PEDS        1.60        
  -1
CDSRT#05.SP
02/03/22
00:29:29.00
02/03/22
00:31:47.00


550.000000
1









LS55
310.00
5.00
5.00
SCAN
1
20
100
100
0
100
0
1
0
1
7
ON
600 365 
1 0 0
#HDR
-1
-1
#GR
NM

0.00002384185791015625
0.0
340.000000
0.500000
421
8
17.822795
0.016000
#DATA
340.000000	0.016000  
340.500000	0.073643  
341.000000	0.093825  
341.500000	0.084454  
342.000000	0.069803  
342.500000	0.065962  
343.000000	0.066060  
343.500000	0.068575  
344.000000	0.072121  
344.500000	0.078621  
345.000000	0.083818  
345.500000	0.090780  
346.000000	0.089431  
346.500000	0.085431  
347.000000	0.077439  
347.500000	0.079553  
348.000000	0.085545  
348.500000	0.098446  
349.000000	0.101340  
349.500000	0.101856  
350.000000	0.100393  
350.500000	0.099325  
351.000000	0.098166  
351.500000	0.095090  
352.000000	0.099651  
352.500000	0.102348  
353.000000	0.104492  
353.500000	0.101393  
354.000000	0.104825  
354.500000	0.106424  
355.000000	0.111037  
355.500000	0.115446  
356.000000	0.118704  
356.500000	0.121356  
357.000000	0.127810  
357.500000	0.136810  
358.000000	0.141469  
358.500000	0.139083  
359.000000	0.135257  
359.500000	0.138795  
360.000000	0.148136  
360.500000	0.152643  
361.000000	0.153636  
361.500000	0.147780  
362.000000	0.147825  
362.500000	0.153825  
363.000000	0.165742  
363.500000	0.175765  
364.000000	0.185409  
364.500000	0.190878  
365.000000	0.191651  
365.500000	0.189106  
366.000000	0.191742  
366.500000	0.199780  
367.000000	0.202015  
367.500000	0.195537  
368.000000	0.196537  
368.500000	0.210439  
369.000000	0.225356  
369.500000	0.225106  
370.000000	0.216416  
370.500000	0.213810  
371.000000	0.221939  
371.500000	0.239583  
372.000000	0.256765  
372.500000	0.274992  
373.000000	0.291409  
373.500000	0.306681  
374.000000	0.309174  
374.500000	0.305878  
375.000000	0.303462  
375.500000	0.321151  
376.000000	0.349666  
376.500000	0.376174  
377.000000	0.392280  
377.500000	0.403871  
378.000000	0.412810  
378.500000	0.423060  
379.000000	0.443810  
379.500000	0.471484  
380.000000	0.487636  
380.500000	0.490689  
381.000000	0.498727  
381.500000	0.521803  
382.000000	0.545287  
382.500000	0.566666  
383.000000	0.585757  
383.500000	0.609401  
384.000000	0.633212  
384.500000	0.665477  
385.000000	0.699780  
385.500000	0.727022  
386.000000	0.742575  
386.500000	0.762409  
387.000000	0.794363  
387.500000	0.832545  
388.000000	0.870492  
388.500000	0.898598  
389.000000	0.919515  
389.500000	0.931500  
390.000000	0.943530  
390.500000	0.965818  
391.000000	0.997234  
391.500000	1.020954  
392.000000	1.030537  
392.500000	1.058818  
393.000000	1.107424  
393.500000	1.172765  
394.000000	1.222257  
394.500000	1.261583  
395.000000	1.287977  
395.500000	1.317022  
396.000000	1.351924  
396.500000	1.393340  
397.000000	1.438045  
397.500000	1.488795  
398.000000	1.542181  
398.500000	1.578803  
399.000000	1.601772  
399.500000	1.633250  
400.000000	1.688560  
400.500000	1.733962  
401.000000	1.774439  
401.500000	1.813250  
402.000000	1.870356  
402.500000	1.919090  
403.000000	1.971803  
403.500000	2.023750  
404.000000	2.082893  
404.500000	2.140977  
405.000000	2.213454  
405.500000	2.301083  
406.000000	2.377901  
406.500000	2.423340  
407.000000	2.453757  
407.500000	2.495787  
408.000000	2.557590  
408.500000	2.616515  
409.000000	2.674295  
409.500000	2.713348  
410.000000	2.763469  
410.500000	2.837772  
411.000000	2.948742  
411.500000	3.059840  
412.000000	3.153909  
412.500000	3.206840  
413.000000	3.266765  
413.500000	3.347143  
414.000000	3.462348  
414.500000	3.552583  
415.000000	3.619621  
415.500000	3.678446  
416.000000	3.793378  
416.500000	3.913575  
417.000000	4.042969  
417.500000	4.152560  
418.000000	4.281772  
418.500000	4.385643  
419.000000	4.471219  
419.500000	4.548272  
420.000000	4.674750  
420.500000	4.844507  
421.000000	5.008166  
421.500000	5.147977  
422.000000	5.253515  
422.500000	5.369757  
423.000000	5.494098  
423.500000	5.638446  
424.000000	5.755325  
424.500000	5.844613  
425.000000	5.925568  
425.500000	6.046113  
426.000000	6.180681  
426.500000	6.338098  
427.000000	6.471045  
427.500000	6.600969  
428.000000	6.677901  
428.500000	6.755916  
429.000000	6.876590  
429.500000	7.073575  
430.000000	7.277492  
430.500000	7.410909  
431.000000	7.460234  
431.500000	7.498727  
432.000000	7.582734  
432.500000	7.704348  
433.000000	7.845356  
433.500000	8.007795  
434.000000	8.139363  
434.500000	8.274318  
435.000000	8.426045  
435.500000	8.615143  
436.000000	8.772015  
436.500000	8.889318  
437.000000	9.005931  
437.500000	9.152386  
438.000000	9.309303  
438.500000	9.413689  
439.000000	9.481083  
439.500000	9.534030  
440.000000	9.643446  
440.500000	9.804015  
441.000000	9.988409  
441.500000	10.105704 
442.000000	10.186575 
442.500000	10.239992 
443.000000	10.336469 
443.500000	10.488507 
444.000000	10.694469 
444.500000	10.928386 
445.000000	11.162537 
445.500000	11.342257 
446.000000	11.461356 
446.500000	11.491204 
447.000000	11.487196 
447.500000	11.538393 
448.000000	11.691409 
448.500000	11.847825 
449.000000	11.898106 
449.500000	11.887568 
450.000000	11.907128 
450.500000	12.001598 
451.000000	12.100636 
451.500000	12.256946 
452.000000	12.407257 
452.500000	12.534583 
453.000000	12.582840 
453.500000	12.652924 
454.000000	12.722969 
454.500000	12.826871 
455.000000	12.946015 
455.500000	13.108954 
456.000000	13.229568 
456.500000	13.317310 
457.000000	13.408507 
457.500000	13.520704 
458.000000	13.637590 
458.500000	13.730287 
459.000000	13.799727 
459.500000	13.841704 
460.000000	13.903439 
460.500000	14.009477 
461.000000	14.121803 
461.500000	14.218613 
462.000000	14.263803 
462.500000	14.317871 
463.000000	14.400659 
463.500000	14.506000 
464.000000	14.587128 
464.500000	14.605795 
465.000000	14.641666 
465.500000	14.730340 
466.000000	14.850871 
466.500000	14.943613 
467.000000	15.032878 
467.500000	15.115696 
468.000000	15.183075 
468.500000	15.220250 
469.000000	15.265272 
469.500000	15.346787 
470.000000	15.443553 
470.500000	15.510712 
471.000000	15.600409 
471.500000	15.681575 
472.000000	15.794765 
472.500000	15.918242 
473.000000	16.051303 
473.500000	16.084507 
474.000000	16.049909 
474.500000	16.059606 
475.000000	16.184477 
475.500000	16.278219 
476.000000	16.290901 
476.500000	16.275704 
477.000000	16.300598 
477.500000	16.339893 
478.000000	16.406196 
478.500000	16.481803 
479.000000	16.627780 
479.500000	16.721606 
480.000000	16.796159 
480.500000	16.836106 
481.000000	16.946750 
481.500000	17.144833 
482.000000	17.374424 
482.500000	17.469401 
483.000000	17.446227 
483.500000	17.455924 
484.000000	17.565916 
484.500000	17.714969 
485.000000	17.742825 
485.500000	17.744606 
486.000000	17.785318 
486.500000	17.822795 
487.000000	17.742257 
487.500000	17.681325 
488.000000	17.686704 
488.500000	17.750257 
489.000000	17.728863 
489.500000	17.691553 
490.000000	17.675310 
490.500000	17.681053 
491.000000	17.666568 
491.500000	17.683333 
492.000000	17.726106 
492.500000	17.733492 
493.000000	17.678946 
493.500000	17.627689 
494.000000	17.641537 
494.500000	17.711113 
495.000000	17.749151 
495.500000	17.719083 
496.000000	17.631878 
496.500000	17.573250 
497.000000	17.547030 
497.500000	17.557643 
498.000000	17.563954 
498.500000	17.578651 
499.000000	17.583113 
499.500000	17.623212 
500.000000	17.659007 
500.500000	17.682045 
501.000000	17.651954 
501.500000	17.619060 
502.000000	17.572795 
502.500000	17.572083 
503.000000	17.585022 
503.500000	17.618318 
504.000000	17.603424 
504.500000	17.641098 
505.000000	17.722674 
505.500000	17.774431 
506.000000	17.656371 
506.500000	17.521969 
507.000000	17.499356 
507.500000	17.562818 
508.000000	17.506856 
508.500000	17.401780 
509.000000	17.337886 
509.500000	17.399969 
510.000000	17.444856 
510.500000	17.452613 
511.000000	17.394886 
511.500000	17.351750 
512.000000	17.302530 
512.500000	17.274977 
513.000000	17.255257 
513.500000	17.253984 
514.000000	17.293787 
514.500000	17.334318 
515.000000	17.340696 
515.500000	17.293651 
516.000000	17.247424 
516.500000	17.185159 
517.000000	17.140325 
517.500000	17.087303 
518.000000	17.018643 
518.500000	16.933121 
519.000000	16.863818 
519.500000	16.836734 
520.000000	16.822386 
520.500000	16.792878 
521.000000	16.755666 
521.500000	16.737424 
522.000000	16.714106 
522.500000	16.664477 
523.000000	16.591424 
523.500000	16.545060 
524.000000	16.515363 
524.500000	16.496954 
525.000000	16.450212 
525.500000	16.455553 
526.000000	16.435325 
526.500000	16.421356 
527.000000	16.377310 
527.500000	16.407386 
528.000000	16.424492 
528.500000	16.476886 
529.000000	16.460719 
529.500000	16.359886 
530.000000	16.139484 
530.500000	15.994348 
531.000000	15.964462 
531.500000	16.019174 
532.000000	16.025204 
532.500000	15.989810 
533.000000	15.898234 
533.500000	15.799174 
534.000000	15.754946 
534.500000	15.784227 
535.000000	15.776560 
535.500000	15.682583 
536.000000	15.536371 
536.500000	15.438681 
537.000000	15.428939 
537.500000	15.448181 
538.000000	15.410393 
538.500000	15.314015 
539.000000	15.227348 
539.500000	15.179053 
540.000000	15.140030 
540.500000	15.103393 
541.000000	15.086295 
541.500000	15.116121 
542.000000	15.115265 
542.500000	15.094386 
543.000000	15.044090 
543.500000	15.000484 
544.000000	14.914272 
544.500000	14.809060 
545.000000	14.725939 
545.500000	14.696674 
546.000000	14.698909 
546.500000	14.691250 
547.000000	14.657431 
547.500000	14.562878 
548.000000	14.490409 
548.500000	14.518015 
549.000000	14.613924 
549.500000	14.597121 
550.000000	14.409000 

