PE FL                   SPECTRUM    ASCII       PEDS        1.60        
  -1
CDSRT#04.SP
02/03/22
00:26:54.00
02/03/22
00:29:04.00


600.000000
1









LS55
365.00
5.00
5.00
SCAN
1
20
100
100
0
100
0
1
0
1
7
ON
420 400 
1 0 0
#HDR
-1
-1
#GR
NM

0.00002384185791015625
0.0
390.000000
0.500000
421
8
41.637045
2.754787
#DATA
390.000000	2.847999  
390.500000	2.754787  
391.000000	2.790143  
391.500000	2.917530  
392.000000	3.028037  
392.500000	3.071787  
393.000000	3.125409  
393.500000	3.217787  
394.000000	3.338075  
394.500000	3.423924  
395.000000	3.505075  
395.500000	3.600212  
396.000000	3.717045  
396.500000	3.801015  
397.000000	3.890575  
397.500000	4.011234  
398.000000	4.175454  
398.500000	4.310583  
399.000000	4.434537  
399.500000	4.561621  
400.000000	4.709568  
400.500000	4.839204  
401.000000	4.972825  
401.500000	5.113931  
402.000000	5.278401  
402.500000	5.427060  
403.000000	5.546295  
403.500000	5.656757  
404.000000	5.791287  
404.500000	5.960628  
405.000000	6.153378  
405.500000	6.372068  
406.000000	6.597356  
406.500000	6.799121  
407.000000	6.949560  
407.500000	7.070393  
408.000000	7.211401  
408.500000	7.383621  
409.000000	7.593219  
409.500000	7.797227  
410.000000	8.015553  
410.500000	8.248310  
411.000000	8.503492  
411.500000	8.741174  
412.000000	8.983659  
412.500000	9.226628  
413.000000	9.466704  
413.500000	9.702053  
414.000000	9.948484  
414.500000	10.231204 
415.000000	10.502022 
415.500000	10.741212 
416.000000	10.957742 
416.500000	11.195962 
417.000000	11.478287 
417.500000	11.815734 
418.000000	12.167371 
418.500000	12.514545 
419.000000	12.808893 
419.500000	13.071439 
420.000000	13.358696 
420.500000	13.712272 
421.000000	14.091143 
421.500000	14.418196 
422.000000	14.692128 
422.500000	14.978560 
423.000000	15.358939 
423.500000	15.752371 
424.000000	16.117106 
424.500000	16.396363 
425.000000	16.653159 
425.500000	16.866151 
426.000000	17.043643 
426.500000	17.242696 
427.000000	17.552333 
427.500000	17.929045 
428.000000	18.337522 
428.500000	18.730303 
429.000000	19.118765 
429.500000	19.445871 
430.000000	19.783803 
430.500000	20.148416 
431.000000	20.532727 
431.500000	20.806477 
432.000000	21.028348 
432.500000	21.274371 
433.000000	21.604340 
433.500000	21.974878 
434.000000	22.342886 
434.500000	22.657931 
435.000000	22.905719 
435.500000	23.140901 
436.000000	23.418469 
436.500000	23.794840 
437.000000	24.208022 
437.500000	24.611462 
438.000000	24.981500 
438.500000	25.301310 
439.000000	25.541893 
439.500000	25.749159 
440.000000	25.989393 
440.500000	26.359931 
441.000000	26.744742 
441.500000	27.092189 
442.000000	27.364901 
442.500000	27.619181 
443.000000	27.861303 
443.500000	28.141878 
444.000000	28.426916 
444.500000	28.685628 
445.000000	28.946742 
445.500000	29.194681 
446.000000	29.438803 
446.500000	29.702053 
447.000000	29.997590 
447.500000	30.302287 
448.000000	30.448280 
448.500000	30.523446 
449.000000	30.649310 
449.500000	30.984106 
450.000000	31.327303 
450.500000	31.574083 
451.000000	31.665810 
451.500000	31.768242 
452.000000	31.968348 
452.500000	32.196053 
453.000000	32.403303 
453.500000	32.535371 
454.000000	32.704151 
454.500000	32.874439 
455.000000	33.087757 
455.500000	33.230454 
456.000000	33.401954 
456.500000	33.636393 
457.000000	33.936575 
457.500000	34.134083 
458.000000	34.194022 
458.500000	34.267189 
459.000000	34.483159 
459.500000	34.712992 
460.000000	34.787863 
460.500000	34.787234 
461.000000	34.930613 
461.500000	35.095893 
462.000000	35.093984 
462.500000	34.991515 
463.000000	35.118325 
463.500000	35.453848 
464.000000	35.747916 
464.500000	35.839939 
465.000000	35.834909 
465.500000	35.821045 
466.000000	35.915909 
466.500000	36.148818 
467.000000	36.426227 
467.500000	36.585893 
468.000000	36.663000 
468.500000	36.761636 
469.000000	36.926416 
469.500000	37.107060 
470.000000	37.337469 
470.500000	37.565780 
471.000000	37.724348 
471.500000	37.761348 
472.000000	37.825583 
472.500000	37.966825 
473.000000	38.238507 
473.500000	38.497522 
474.000000	38.712242 
474.500000	38.766363 
475.000000	38.789598 
475.500000	38.902166 
476.000000	39.131924 
476.500000	39.314143 
477.000000	39.334863 
477.500000	39.312431 
478.000000	39.330901 
478.500000	39.490022 
479.000000	39.717924 
479.500000	39.982613 
480.000000	40.135909 
480.500000	40.196515 
481.000000	40.309492 
481.500000	40.558818 
482.000000	40.963712 
482.500000	41.342590 
483.000000	41.519227 
483.500000	41.497984 
484.000000	41.459977 
484.500000	41.553568 
485.000000	41.637045 
485.500000	41.573727 
486.000000	41.370363 
486.500000	41.229871 
487.000000	41.216295 
487.500000	41.278666 
488.000000	41.226249 
488.500000	41.063704 
489.000000	40.980348 
489.500000	41.015371 
490.000000	41.027106 
490.500000	40.914598 
491.000000	40.733234 
491.500000	40.607000 
492.000000	40.492219 
492.500000	40.396856 
493.000000	40.316530 
493.500000	40.234939 
494.000000	40.172174 
494.500000	40.131492 
495.000000	40.126219 
495.500000	40.099848 
496.000000	40.013833 
496.500000	39.881409 
497.000000	39.823636 
497.500000	39.805818 
498.000000	39.777106 
498.500000	39.703166 
499.000000	39.527757 
499.500000	39.348212 
500.000000	39.232628 
500.500000	39.259045 
501.000000	39.260560 
501.500000	39.145939 
502.000000	38.963901 
502.500000	38.919189 
503.000000	38.985037 
503.500000	39.019053 
504.000000	38.865909 
504.500000	38.628068 
505.000000	38.420356 
505.500000	38.417303 
506.000000	38.436272 
506.500000	38.390810 
507.000000	38.245181 
507.500000	38.134772 
508.000000	38.019553 
508.500000	37.899401 
509.000000	37.762250 
509.500000	37.694212 
510.000000	37.696083 
510.500000	37.699712 
511.000000	37.637007 
511.500000	37.500325 
512.000000	37.358765 
512.500000	37.255462 
513.000000	37.208969 
513.500000	37.154984 
514.000000	37.066507 
514.500000	36.949128 
515.000000	36.840734 
515.500000	36.719234 
516.000000	36.509575 
516.500000	36.223166 
517.000000	35.952689 
517.500000	35.811280 
518.000000	35.713007 
518.500000	35.602227 
519.000000	35.492590 
519.500000	35.439924 
520.000000	35.424727 
520.500000	35.372954 
521.000000	35.196348 
521.500000	35.041674 
522.000000	34.944787 
522.500000	34.903772 
523.000000	34.744007 
523.500000	34.577143 
524.000000	34.482818 
524.500000	34.462303 
525.000000	34.368287 
525.500000	34.213977 
526.000000	34.114113 
526.500000	34.060727 
527.000000	33.991924 
527.500000	33.852439 
528.000000	33.695272 
528.500000	33.582022 
529.000000	33.552795 
529.500000	33.514484 
530.000000	33.360060 
530.500000	33.073462 
531.000000	32.886333 
531.500000	32.803416 
532.000000	32.772742 
532.500000	32.618477 
533.000000	32.462037 
533.500000	32.297613 
534.000000	32.171780 
534.500000	31.952174 
535.000000	31.774606 
535.500000	31.657795 
536.000000	31.618212 
536.500000	31.592401 
537.000000	31.516181 
537.500000	31.360863 
538.000000	31.166553 
538.500000	30.975696 
539.000000	30.885886 
539.500000	30.858787 
540.000000	30.821939 
540.500000	30.678628 
541.000000	30.545651 
541.500000	30.386765 
542.000000	30.255954 
542.500000	30.068257 
543.000000	29.924287 
543.500000	29.844363 
544.000000	29.808969 
544.500000	29.723242 
545.000000	29.494787 
545.500000	29.303166 
546.000000	29.216462 
546.500000	29.239318 
547.000000	29.131803 
547.500000	28.962401 
548.000000	28.756356 
548.500000	28.637909 
549.000000	28.497484 
549.500000	28.405424 
550.000000	28.346780 
550.500000	28.285962 
551.000000	28.165416 
551.500000	27.993303 
552.000000	27.820530 
552.500000	27.700863 
553.000000	27.671984 
553.500000	27.630712 
554.000000	27.540340 
554.500000	27.347462 
555.000000	27.125250 
555.500000	26.984613 
556.000000	26.982128 
556.500000	26.995272 
557.000000	26.878628 
557.500000	26.674295 
558.000000	26.509856 
558.500000	26.432113 
559.000000	26.346530 
559.500000	26.280280 
560.000000	26.192098 
560.500000	26.056363 
561.000000	25.888924 
561.500000	25.756318 
562.000000	25.706984 
562.500000	25.658643 
563.000000	25.612325 
563.500000	25.474189 
564.000000	25.322477 
564.500000	25.144515 
565.000000	25.043113 
565.500000	24.926227 
566.000000	24.840939 
566.500000	24.782393 
567.000000	24.755522 
567.500000	24.644939 
568.000000	24.456234 
568.500000	24.289901 
569.000000	24.173484 
569.500000	24.113386 
570.000000	24.029901 
570.500000	23.943901 
571.000000	23.869886 
571.500000	23.839068 
572.000000	23.772727 
572.500000	23.632924 
573.000000	23.429560 
573.500000	23.257113 
574.000000	23.173681 
574.500000	23.106143 
575.000000	23.020643 
575.500000	22.923878 
576.000000	22.834280 
576.500000	22.742431 
577.000000	22.629840 
577.500000	22.489196 
578.000000	22.399356 
578.500000	22.346909 
579.000000	22.307053 
579.500000	22.182500 
580.000000	21.991613 
580.500000	21.774431 
581.000000	21.656742 
581.500000	21.607712 
582.000000	21.586409 
582.500000	21.546280 
583.000000	21.450000 
583.500000	21.358113 
584.000000	21.290272 
584.500000	21.228371 
585.000000	21.121590 
585.500000	20.976250 
586.000000	20.863666 
586.500000	20.749250 
587.000000	20.663984 
587.500000	20.551128 
588.000000	20.518295 
588.500000	20.487121 
589.000000	20.532484 
589.500000	20.493803 
590.000000	20.378143 
590.500000	20.148151 
591.000000	19.951598 
591.500000	19.798628 
592.000000	19.714545 
592.500000	19.710090 
593.000000	19.761848 
593.500000	19.749303 
594.000000	19.608939 
594.500000	19.499507 
595.000000	19.374128 
595.500000	19.271727 
596.000000	19.107727 
596.500000	19.008128 
597.000000	18.881121 
597.500000	18.777606 
598.000000	18.676386 
598.500000	18.631537 
599.000000	18.555250 
599.500000	18.435606 
600.000000	18.303000 

