PE FL                   SPECTRUM    ASCII       PEDS        1.60        
  -1
01#140.SP
02/03/16
03:02:28.00
02/03/16
03:05:07.00


500.000000
1









LS55
510.00
5.00
5.00
SCAN
1
20
100
100
0
100
0
0
0
1
7
ON
700 400 
1 0 0
#HDR
-1
-1
#GR
NM

0.00002384185791015625
0.0
260.000000
0.500000
481
8
0.277000
-0.000545
#DATA
260.000000	0.277000  
260.500000	0.147560  
261.000000	0.076234  
261.500000	0.056863  
262.000000	0.048371  
262.500000	0.031606  
263.000000	0.022916  
263.500000	0.021340  
264.000000	0.023916  
264.500000	0.022545  
265.000000	0.015166  
265.500000	0.009568  
266.000000	0.007984  
266.500000	0.006628  
267.000000	0.003257  
267.500000	0.004159  
268.000000	0.009060  
268.500000	0.012303  
269.000000	0.012568  
269.500000	0.012212  
270.000000	0.012803  
270.500000	0.009348  
271.000000	0.004189  
271.500000	0.001598  
272.000000	0.003681  
272.500000	0.004530  
273.000000	0.002659  
273.500000	0.000431  
274.000000	-0.000545 
274.500000	-0.000121 
275.000000	-0.000106 
275.500000	0.000515  
276.000000	0.001098  
276.500000	0.004545  
277.000000	0.009242  
277.500000	0.012204  
278.000000	0.010431  
278.500000	0.006742  
279.000000	0.003606  
279.500000	0.001727  
280.000000	0.000848  
280.500000	0.000871  
281.000000	0.002515  
281.500000	0.002575  
282.000000	0.002719  
282.500000	0.002174  
283.000000	0.001803  
283.500000	0.000643  
284.000000	0.000143  
284.500000	-0.000181 
285.000000	0.000000  
285.500000	0.000000  
286.000000	0.000000  
286.500000	-0.000060 
287.000000	-0.000113 
287.500000	0.000477  
288.000000	0.001257  
288.500000	0.001590  
289.000000	0.000886  
289.500000	0.000143  
290.000000	-0.000181 
290.500000	0.000000  
291.000000	0.000000  
291.500000	0.000000  
292.000000	0.000000  
292.500000	0.000000  
293.000000	-0.000060 
293.500000	-0.000113 
294.000000	0.000477  
294.500000	0.001136  
295.000000	0.001424  
295.500000	0.001772  
296.000000	0.002386  
296.500000	0.002560  
297.000000	0.001500  
297.500000	0.000219  
298.000000	-0.000303 
298.500000	0.000000  
299.000000	0.000000  
299.500000	-0.000060 
300.000000	-0.000053 
300.500000	0.000409  
301.000000	0.000984  
301.500000	0.001151  
302.000000	0.000613  
302.500000	0.000075  
303.000000	-0.000121 
303.500000	0.000000  
304.000000	-0.000060 
304.500000	-0.000053 
305.000000	0.000409  
305.500000	0.000863  
306.000000	0.000984  
306.500000	0.001439  
307.000000	0.002265  
307.500000	0.003030  
308.000000	0.002484  
308.500000	0.001371  
309.000000	0.000250  
309.500000	-0.000037 
310.000000	0.000234  
310.500000	0.001333  
311.000000	0.002083  
311.500000	0.002113  
312.000000	0.001621  
312.500000	0.001454  
313.000000	0.001424  
313.500000	0.001636  
314.000000	0.001416  
314.500000	0.001174  
315.000000	0.000780  
315.500000	0.000893  
316.000000	0.001856  
316.500000	0.002803  
317.000000	0.003227  
317.500000	0.002242  
318.000000	0.001022  
318.500000	0.001219  
319.000000	0.003219  
319.500000	0.004833  
320.000000	0.004007  
320.500000	0.002303  
321.000000	0.001780  
321.500000	0.003613  
322.000000	0.005825  
322.500000	0.006962  
323.000000	0.007318  
323.500000	0.006575  
324.000000	0.005674  
324.500000	0.005204  
325.000000	0.005143  
325.500000	0.004249  
326.000000	0.004545  
326.500000	0.008522  
327.000000	0.013621  
327.500000	0.014386  
328.000000	0.009227  
328.500000	0.003848  
329.000000	0.003393  
329.500000	0.005893  
330.000000	0.007553  
330.500000	0.006606  
331.000000	0.004893  
331.500000	0.003750  
332.000000	0.003901  
332.500000	0.004060  
333.000000	0.003969  
333.500000	0.003500  
334.000000	0.003310  
334.500000	0.003924  
335.000000	0.005439  
335.500000	0.007984  
336.000000	0.011689  
336.500000	0.014613  
337.000000	0.013924  
337.500000	0.010446  
338.000000	0.006560  
338.500000	0.005780  
339.000000	0.006969  
339.500000	0.008886  
340.000000	0.008810  
340.500000	0.008878  
341.000000	0.008477  
341.500000	0.011340  
342.000000	0.014621  
342.500000	0.017250  
343.000000	0.014924  
343.500000	0.011560  
344.000000	0.008689  
344.500000	0.008909  
345.000000	0.010621  
345.500000	0.013136  
346.000000	0.016992  
346.500000	0.018696  
347.000000	0.016856  
347.500000	0.011765  
348.000000	0.007878  
348.500000	0.006977  
349.000000	0.010840  
349.500000	0.015181  
350.000000	0.016886  
350.500000	0.015477  
351.000000	0.014060  
351.500000	0.014606  
352.000000	0.016272  
352.500000	0.016053  
353.000000	0.013772  
353.500000	0.011333  
354.000000	0.010795  
354.500000	0.011939  
355.000000	0.011962  
355.500000	0.011439  
356.000000	0.012431  
356.500000	0.015560  
357.000000	0.017030  
357.500000	0.016848  
358.000000	0.017454  
358.500000	0.018825  
359.000000	0.017371  
359.500000	0.015083  
360.000000	0.015795  
360.500000	0.018151  
361.000000	0.017871  
361.500000	0.015212  
362.000000	0.013833  
362.500000	0.013325  
363.000000	0.016000  
363.500000	0.018772  
364.000000	0.021090  
364.500000	0.019469  
365.000000	0.019651  
365.500000	0.020780  
366.000000	0.019765  
366.500000	0.014924  
367.000000	0.013962  
367.500000	0.017984  
368.000000	0.021636  
368.500000	0.019931  
369.000000	0.016931  
369.500000	0.014878  
370.000000	0.015696  
370.500000	0.017272  
371.000000	0.019734  
371.500000	0.020727  
372.000000	0.023060  
372.500000	0.027840  
373.000000	0.032424  
373.500000	0.032151  
374.000000	0.025772  
374.500000	0.020143  
375.000000	0.018848  
375.500000	0.020484  
376.000000	0.020719  
376.500000	0.020787  
377.000000	0.021007  
377.500000	0.021780  
378.000000	0.019765  
378.500000	0.015719  
379.000000	0.012651  
379.500000	0.012772  
380.000000	0.015060  
380.500000	0.017492  
381.000000	0.021628  
381.500000	0.025310  
382.000000	0.027977  
382.500000	0.026515  
383.000000	0.024007  
383.500000	0.019477  
384.000000	0.014916  
384.500000	0.010181  
385.000000	0.011348  
385.500000	0.015083  
386.000000	0.017234  
386.500000	0.014803  
387.000000	0.012856  
387.500000	0.012984  
388.000000	0.014287  
388.500000	0.015318  
389.000000	0.016015  
389.500000	0.015416  
390.000000	0.012500  
390.500000	0.012015  
391.000000	0.014128  
391.500000	0.017174  
392.000000	0.017515  
392.500000	0.016363  
393.000000	0.014560  
393.500000	0.013113  
394.000000	0.010560  
394.500000	0.007893  
395.000000	0.007295  
395.500000	0.011090  
396.000000	0.015537  
396.500000	0.015121  
397.000000	0.011431  
397.500000	0.011030  
398.000000	0.012234  
398.500000	0.011068  
399.000000	0.006696  
399.500000	0.005545  
400.000000	0.007909  
400.500000	0.011893  
401.000000	0.011962  
401.500000	0.010568  
402.000000	0.008825  
402.500000	0.010272  
403.000000	0.011840  
403.500000	0.011318  
404.000000	0.008553  
404.500000	0.005636  
405.000000	0.004037  
405.500000	0.002734  
406.000000	0.003000  
406.500000	0.003803  
407.000000	0.005446  
407.500000	0.006901  
408.000000	0.008287  
408.500000	0.007878  
409.000000	0.005962  
409.500000	0.003363  
410.000000	0.001780  
410.500000	0.001143  
411.000000	0.001143  
411.500000	0.001318  
412.000000	0.001477  
412.500000	0.001121  
413.000000	0.001250  
413.500000	0.001871  
414.000000	0.002484  
414.500000	0.003030  
415.000000	0.003151  
415.500000	0.002507  
416.000000	0.001946  
416.500000	0.002484  
417.000000	0.003598  
417.500000	0.003537  
418.000000	0.002030  
418.500000	0.000962  
419.000000	0.000818  
419.500000	0.001060  
420.000000	0.000992  
420.500000	0.000719  
421.000000	0.000280  
421.500000	0.000007  
422.000000	-0.000060 
422.500000	0.000000  
423.000000	0.000000  
423.500000	0.000000  
424.000000	0.000000  
424.500000	-0.000060 
425.000000	0.000007  
425.500000	0.000340  
426.000000	0.000651  
426.500000	0.000659  
427.000000	0.000750  
427.500000	0.000992  
428.000000	0.001090  
428.500000	0.000613  
429.000000	0.000075  
429.500000	-0.000121 
430.000000	0.000000  
430.500000	0.000000  
431.000000	0.000000  
431.500000	-0.000060 
432.000000	0.000007  
432.500000	0.000340  
433.000000	0.000712  
433.500000	0.000712  
434.000000	0.000340  
434.500000	0.000007  
435.000000	-0.000060 
435.500000	-0.000060 
436.000000	0.000007  
436.500000	0.000280  
437.000000	0.000719  
437.500000	0.001053  
438.000000	0.001053  
438.500000	0.000719  
439.000000	0.000219  
439.500000	0.000015  
440.000000	0.000280  
440.500000	0.000651  
441.000000	0.000537  
441.500000	0.000886  
442.000000	0.001537  
442.500000	0.001969  
443.000000	0.001098  
443.500000	0.000219  
444.000000	0.000037  
444.500000	0.000719  
445.000000	0.000992  
445.500000	0.001000  
446.000000	0.000946  
446.500000	0.001227  
447.000000	0.001946  
447.500000	0.002818  
448.000000	0.004015  
448.500000	0.005196  
449.000000	0.007727  
449.500000	0.010636  
450.000000	0.013257  
450.500000	0.013659  
451.000000	0.015575  
451.500000	0.017030  
452.000000	0.017780  
452.500000	0.017348  
453.000000	0.017568  
453.500000	0.016901  
454.000000	0.014795  
454.500000	0.012325  
455.000000	0.010590  
455.500000	0.008742  
456.000000	0.005492  
456.500000	0.002962  
457.000000	0.001272  
457.500000	0.000666  
458.000000	0.001371  
458.500000	0.002530  
459.000000	0.002659  
459.500000	0.002189  
460.000000	0.001416  
460.500000	0.001545  
461.000000	0.001818  
461.500000	0.001977  
462.000000	0.001037  
462.500000	0.000159  
463.000000	0.000045  
463.500000	0.001000  
464.000000	0.001772  
464.500000	0.002045  
465.000000	0.001598  
465.500000	0.001484  
466.000000	0.001886  
466.500000	0.002189  
467.000000	0.001545  
467.500000	0.000825  
468.000000	0.000537  
468.500000	0.000590  
469.000000	0.000348  
469.500000	0.000348  
470.000000	0.000651  
470.500000	0.000651  
471.000000	0.000227  
471.500000	0.000242  
472.000000	0.001469  
472.500000	0.002621  
473.000000	0.002651  
473.500000	0.001575  
474.000000	0.000803  
474.500000	0.000469  
475.000000	0.000280  
475.500000	-0.000348 
476.000000	0.000083  
476.500000	0.002666  
477.000000	0.006484  
477.500000	0.008007  
478.000000	0.005780  
478.500000	0.001893  
479.000000	-0.000257 
479.500000	-0.000537 
480.000000	0.000303  
480.500000	0.001196  
481.000000	0.003500  
481.500000	0.005621  
482.000000	0.007045  
482.500000	0.006462  
483.000000	0.006121  
483.500000	0.007590  
484.000000	0.010333  
484.500000	0.012386  
485.000000	0.012651  
485.500000	0.012537  
486.000000	0.012121  
486.500000	0.013439  
487.000000	0.013439  
487.500000	0.012545  
488.000000	0.010909  
488.500000	0.010856  
489.000000	0.011712  
489.500000	0.011431  
490.000000	0.009204  
490.500000	0.008909  
491.000000	0.011575  
491.500000	0.017257  
492.000000	0.020136  
492.500000	0.020560  
493.000000	0.018378  
493.500000	0.020257  
494.000000	0.023848  
494.500000	0.029871  
495.000000	0.034757  
495.500000	0.038371  
496.000000	0.040886  
496.500000	0.046484  
497.000000	0.060212  
497.500000	0.074303  
498.000000	0.082121  
498.500000	0.091674  
499.000000	0.120136  
499.500000	0.167037  
500.000000	0.222000  

