PE FL                   SPECTRUM    ASCII       PEDS        1.60        
  -1
01#141.SP
02/03/16
03:05:43.00
02/03/16
03:08:52.00


700.000000
1









LS55
375.00
5.00
5.00
SCAN
1
20
100
100
0
100
0
1
0
1
7
ON
510 500 
1 0 0
#HDR
-1
-1
#GR
NM

0.00002384185791015625
0.0
400.000000
0.500000
601
8
0.053310
-0.000424
#DATA
400.000000	0.000000  
400.500000	-0.000287 
401.000000	0.001022  
401.500000	0.002787  
402.000000	0.003560  
402.500000	0.001810  
403.000000	0.000363  
403.500000	0.001818  
404.000000	0.005106  
404.500000	0.007083  
405.000000	0.006674  
405.500000	0.005136  
406.000000	0.002825  
406.500000	0.001325  
407.000000	0.002325  
407.500000	0.004681  
408.000000	0.005386  
408.500000	0.002613  
409.000000	0.000083  
409.500000	0.000166  
410.000000	0.002787  
410.500000	0.004272  
411.000000	0.003469  
411.500000	0.001204  
412.000000	0.000212  
412.500000	0.001439  
413.000000	0.002954  
413.500000	0.003560  
414.000000	0.003333  
414.500000	0.003863  
415.000000	0.005628  
415.500000	0.006878  
416.000000	0.007181  
416.500000	0.006795  
417.000000	0.007492  
417.500000	0.007803  
418.000000	0.007371  
418.500000	0.005083  
419.000000	0.003060  
419.500000	0.002575  
420.000000	0.003174  
420.500000	0.003462  
421.000000	0.002219  
421.500000	0.001636  
422.000000	0.001946  
422.500000	0.003053  
423.000000	0.003643  
423.500000	0.003568  
424.000000	0.002340  
424.500000	0.001568  
425.000000	0.004143  
425.500000	0.009750  
426.000000	0.013075  
426.500000	0.011356  
427.000000	0.009984  
427.500000	0.012446  
428.000000	0.016250  
428.500000	0.016340  
429.000000	0.014280  
429.500000	0.013507  
430.000000	0.017939  
430.500000	0.022969  
431.000000	0.030590  
431.500000	0.040204  
432.000000	0.051431  
432.500000	0.053310  
433.000000	0.043946  
433.500000	0.033431  
434.000000	0.033916  
434.500000	0.041734  
435.000000	0.042636  
435.500000	0.034795  
436.000000	0.024659  
436.500000	0.022068  
437.000000	0.021454  
437.500000	0.020553  
438.000000	0.016598  
438.500000	0.014833  
439.000000	0.012575  
439.500000	0.010621  
440.000000	0.006674  
440.500000	0.005090  
441.000000	0.003681  
441.500000	0.007530  
442.000000	0.013159  
442.500000	0.017712  
443.000000	0.015742  
443.500000	0.012924  
444.000000	0.010992  
444.500000	0.011628  
445.000000	0.011825  
445.500000	0.011409  
446.000000	0.011424  
446.500000	0.012401  
447.000000	0.015522  
447.500000	0.016825  
448.000000	0.015348  
448.500000	0.011757  
449.000000	0.013348  
449.500000	0.016825  
450.000000	0.019530  
450.500000	0.018409  
451.000000	0.018295  
451.500000	0.017356  
452.000000	0.014454  
452.500000	0.009454  
453.000000	0.008151  
453.500000	0.008689  
454.000000	0.010568  
454.500000	0.011151  
455.000000	0.012621  
455.500000	0.013606  
456.000000	0.015916  
456.500000	0.017946  
457.000000	0.017401  
457.500000	0.013189  
458.000000	0.009560  
458.500000	0.008272  
459.000000	0.009393  
459.500000	0.010636  
460.000000	0.011166  
460.500000	0.011378  
461.000000	0.012333  
461.500000	0.014189  
462.000000	0.013750  
462.500000	0.012681  
463.000000	0.011424  
463.500000	0.013310  
464.000000	0.011553  
464.500000	0.010530  
465.000000	0.009598  
465.500000	0.012060  
466.000000	0.011772  
466.500000	0.012053  
467.000000	0.011575  
467.500000	0.012992  
468.000000	0.011825  
468.500000	0.012121  
469.000000	0.011833  
469.500000	0.012848  
470.000000	0.012333  
470.500000	0.012439  
471.000000	0.011424  
471.500000	0.011795  
472.000000	0.013568  
472.500000	0.015439  
473.000000	0.013840  
473.500000	0.011477  
474.000000	0.011151  
474.500000	0.012772  
475.000000	0.014189  
475.500000	0.015666  
476.000000	0.016712  
476.500000	0.016303  
477.000000	0.014166  
477.500000	0.011272  
478.000000	0.010590  
478.500000	0.010189  
479.000000	0.013727  
479.500000	0.016356  
480.000000	0.016848  
480.500000	0.012916  
481.000000	0.010696  
481.500000	0.009318  
482.000000	0.011416  
482.500000	0.013825  
483.000000	0.017409  
483.500000	0.021000  
484.000000	0.025439  
484.500000	0.028507  
485.000000	0.028431  
485.500000	0.024204  
486.000000	0.020636  
486.500000	0.017098  
487.000000	0.014636  
487.500000	0.011818  
488.000000	0.010371  
488.500000	0.010053  
489.000000	0.011303  
489.500000	0.014893  
490.000000	0.022765  
490.500000	0.029348  
491.000000	0.034878  
491.500000	0.033977  
492.000000	0.031416  
492.500000	0.026136  
493.000000	0.023492  
493.500000	0.018181  
494.000000	0.016424  
494.500000	0.014840  
495.000000	0.015545  
495.500000	0.014939  
496.000000	0.015363  
496.500000	0.018045  
497.000000	0.022825  
497.500000	0.023696  
498.000000	0.020393  
498.500000	0.017174  
499.000000	0.019090  
499.500000	0.022234  
500.000000	0.026386  
500.500000	0.027106  
501.000000	0.025181  
501.500000	0.018765  
502.000000	0.014803  
502.500000	0.014469  
503.000000	0.017553  
503.500000	0.018969  
504.000000	0.019022  
504.500000	0.020416  
505.000000	0.022045  
505.500000	0.024712  
506.000000	0.023227  
506.500000	0.020015  
507.000000	0.017287  
507.500000	0.020136  
508.000000	0.024696  
508.500000	0.028696  
509.000000	0.028818  
509.500000	0.031568  
510.000000	0.032469  
510.500000	0.030295  
511.000000	0.021272  
511.500000	0.015128  
512.000000	0.016439  
512.500000	0.023098  
513.000000	0.025462  
513.500000	0.025333  
514.000000	0.025810  
514.500000	0.025833  
515.000000	0.023537  
515.500000	0.019598  
516.000000	0.016696  
516.500000	0.015022  
517.000000	0.012348  
517.500000	0.012143  
518.000000	0.013939  
518.500000	0.017189  
519.000000	0.018363  
519.500000	0.018583  
520.000000	0.019825  
520.500000	0.024818  
521.000000	0.030242  
521.500000	0.031681  
522.000000	0.026151  
522.500000	0.017386  
523.000000	0.012939  
523.500000	0.015386  
524.000000	0.021204  
524.500000	0.024757  
525.000000	0.023083  
525.500000	0.019371  
526.000000	0.015651  
526.500000	0.014159  
527.000000	0.014992  
527.500000	0.019075  
528.000000	0.021931  
528.500000	0.021818  
529.000000	0.020522  
529.500000	0.022560  
530.000000	0.025113  
530.500000	0.025356  
531.000000	0.022954  
531.500000	0.020500  
532.000000	0.015590  
532.500000	0.011287  
533.000000	0.010386  
533.500000	0.013583  
534.000000	0.015628  
534.500000	0.016757  
535.000000	0.017500  
535.500000	0.018159  
536.000000	0.020143  
536.500000	0.024477  
537.000000	0.029007  
537.500000	0.027454  
538.000000	0.021825  
538.500000	0.016969  
539.000000	0.017606  
539.500000	0.018674  
540.000000	0.019151  
540.500000	0.015886  
541.000000	0.013227  
541.500000	0.012848  
542.000000	0.016871  
542.500000	0.021568  
543.000000	0.023530  
543.500000	0.020787  
544.000000	0.018621  
544.500000	0.019053  
545.000000	0.020257  
545.500000	0.018719  
546.000000	0.016053  
546.500000	0.014780  
547.000000	0.015303  
547.500000	0.014734  
548.000000	0.012977  
548.500000	0.013515  
549.000000	0.018196  
549.500000	0.025037  
550.000000	0.025590  
550.500000	0.021015  
551.000000	0.014984  
551.500000	0.012712  
552.000000	0.010280  
552.500000	0.008553  
553.000000	0.008053  
553.500000	0.010795  
554.000000	0.013265  
554.500000	0.014689  
555.000000	0.015151  
555.500000	0.014590  
556.000000	0.012492  
556.500000	0.010712  
557.000000	0.009886  
557.500000	0.009704  
558.000000	0.009083  
558.500000	0.008787  
559.000000	0.008560  
559.500000	0.009007  
560.000000	0.009234  
560.500000	0.010227  
561.000000	0.011719  
561.500000	0.012742  
562.000000	0.013750  
562.500000	0.015348  
563.000000	0.018416  
563.500000	0.021060  
564.000000	0.022416  
564.500000	0.019833  
565.000000	0.016666  
565.500000	0.013787  
566.000000	0.012469  
566.500000	0.009174  
567.000000	0.008250  
567.500000	0.013674  
568.000000	0.026545  
568.500000	0.036310  
569.000000	0.035742  
569.500000	0.026393  
570.000000	0.016257  
570.500000	0.010234  
571.000000	0.008568  
571.500000	0.007348  
572.000000	0.007128  
572.500000	0.008560  
573.000000	0.010893  
573.500000	0.009856  
574.000000	0.005689  
574.500000	0.002204  
575.000000	0.003166  
575.500000	0.005439  
576.000000	0.005022  
576.500000	0.004659  
577.000000	0.005022  
577.500000	0.006507  
578.000000	0.005560  
578.500000	0.004166  
579.000000	0.003280  
579.500000	0.004128  
580.000000	0.004500  
580.500000	0.004651  
581.000000	0.003757  
581.500000	0.002393  
582.000000	0.002219  
582.500000	0.003303  
583.000000	0.004901  
583.500000	0.007954  
584.000000	0.011045  
584.500000	0.013363  
585.000000	0.011553  
585.500000	0.008030  
586.000000	0.003878  
586.500000	0.002537  
587.000000	0.002174  
587.500000	0.003727  
588.000000	0.005696  
588.500000	0.007469  
589.000000	0.008265  
589.500000	0.007212  
590.000000	0.004946  
590.500000	0.002712  
591.000000	0.002878  
591.500000	0.004227  
592.000000	0.004750  
592.500000	0.002545  
593.000000	0.002174  
593.500000	0.004204  
594.000000	0.006643  
594.500000	0.006401  
595.000000	0.005931  
595.500000	0.005750  
596.000000	0.005840  
596.500000	0.004340  
597.000000	0.002878  
597.500000	0.002113  
598.000000	0.003537  
598.500000	0.005181  
599.000000	0.005818  
599.500000	0.003946  
600.000000	0.002272  
600.500000	0.001462  
601.000000	0.002257  
601.500000	0.003143  
602.000000	0.004787  
602.500000	0.006522  
603.000000	0.007227  
603.500000	0.006303  
604.000000	0.005075  
604.500000	0.004712  
605.000000	0.005886  
605.500000	0.006719  
606.000000	0.006143  
606.500000	0.003734  
607.000000	0.001227  
607.500000	0.000545  
608.000000	0.001674  
608.500000	0.002590  
609.000000	0.002106  
609.500000	0.002121  
610.000000	0.002340  
610.500000	0.002257  
611.000000	0.000818  
611.500000	0.001174  
612.000000	0.002545  
612.500000	0.003500  
613.000000	0.001757  
613.500000	0.001257  
614.000000	0.002439  
614.500000	0.003931  
615.000000	0.002871  
615.500000	0.003030  
616.000000	0.005659  
616.500000	0.008053  
617.000000	0.006234  
617.500000	0.002250  
618.000000	0.000628  
618.500000	0.001545  
619.000000	0.002242  
619.500000	0.001174  
620.000000	0.000560  
620.500000	0.000742  
621.000000	0.001151  
621.500000	0.000553  
622.000000	0.000022  
622.500000	0.000227  
623.000000	0.000931  
623.500000	0.001560  
624.000000	0.001598  
624.500000	0.001106  
625.000000	0.000386  
625.500000	0.000893  
626.000000	0.001848  
626.500000	0.002303  
627.000000	0.001166  
627.500000	0.000098  
628.000000	0.000106  
628.500000	0.000931  
629.000000	0.001500  
629.500000	0.001484  
630.000000	0.001583  
630.500000	0.001886  
631.000000	0.002212  
631.500000	0.001643  
632.000000	0.000689  
632.500000	-0.000045 
633.000000	-0.000121 
633.500000	0.000000  
634.000000	-0.000060 
634.500000	-0.000174 
635.000000	0.000242  
635.500000	0.001568  
636.000000	0.003310  
636.500000	0.005196  
637.000000	0.005681  
637.500000	0.004537  
638.000000	0.001946  
638.500000	0.000174  
639.000000	-0.000424 
639.500000	0.000000  
640.000000	0.000000  
640.500000	0.000000  
641.000000	0.000000  
641.500000	0.000000  
642.000000	-0.000121 
642.500000	-0.000106 
643.000000	0.000757  
643.500000	0.001916  
644.000000	0.002712  
644.500000	0.002212  
645.000000	0.001242  
645.500000	0.000318  
646.000000	0.000484  
646.500000	0.000863  
647.000000	0.001151  
647.500000	0.000613  
648.000000	0.000015  
648.500000	-0.000174 
649.000000	0.000348  
649.500000	0.000931  
650.000000	0.001560  
650.500000	0.001598  
651.000000	0.001166  
651.500000	0.000439  
652.000000	0.000484  
652.500000	0.000863  
653.000000	0.001151  
653.500000	0.000613  
654.000000	0.000075  
654.500000	-0.000121 
655.000000	0.000000  
655.500000	0.000000  
656.000000	0.000000  
656.500000	0.000000  
657.000000	0.000000  
657.500000	0.000000  
658.000000	0.000000  
658.500000	0.000000  
659.000000	0.000000  
659.500000	0.000000  
660.000000	0.000000  
660.500000	0.000000  
661.000000	0.000000  
661.500000	0.000000  
662.000000	0.000000  
662.500000	0.000000  
663.000000	0.000000  
663.500000	0.000000  
664.000000	0.000000  
664.500000	0.000000  
665.000000	0.000000  
665.500000	0.000000  
666.000000	0.000000  
666.500000	0.000000  
667.000000	0.000000  
667.500000	0.000000  
668.000000	0.000000  
668.500000	0.000000  
669.000000	0.000000  
669.500000	0.000000  
670.000000	0.000000  
670.500000	0.000000  
671.000000	-0.000060 
671.500000	-0.000053 
672.000000	0.000409  
672.500000	0.000984  
673.000000	0.001151  
673.500000	0.000613  
674.000000	0.000075  
674.500000	-0.000121 
675.000000	0.000000  
675.500000	0.000000  
676.000000	0.000000  
676.500000	0.000000  
677.000000	-0.000060 
677.500000	-0.000053 
678.000000	0.000409  
678.500000	0.000924  
679.000000	0.001098  
679.500000	0.001022  
680.000000	0.001060  
680.500000	0.001030  
681.000000	0.000613  
681.500000	0.000075  
682.000000	-0.000121 
682.500000	0.000000  
683.000000	0.000000  
683.500000	0.000000  
684.000000	0.000000  
684.500000	0.000000  
685.000000	-0.000060 
685.500000	-0.000053 
686.000000	0.000409  
686.500000	0.000984  
687.000000	0.001151  
687.500000	0.000613  
688.000000	0.000075  
688.500000	-0.000121 
689.000000	0.000000  
689.500000	0.000000  
690.000000	0.000000  
690.500000	0.000000  
691.000000	0.000000  
691.500000	0.000000  
692.000000	0.000000  
692.500000	0.000000  
693.000000	0.000000  
693.500000	0.000000  
694.000000	0.000000  
694.500000	0.000000  
695.000000	0.000000  
695.500000	0.000000  
696.000000	0.000000  
696.500000	0.000000  
697.000000	0.000000  
697.500000	0.000000  
698.000000	0.000000  
698.500000	0.000000  
699.000000	0.000000  
699.500000	0.000000  
700.000000	0.000000  

