PE FL                   SPECTRUM    ASCII       PEDS        1.60        
  -1
01#138.SP
02/03/16
02:56:26.00
02/03/16
02:58:03.00


454.500000
1









LS55
300.00
5.00
5.00
SCAN
1
20
100
100
0
100
0
1
0
1
7
ON
700 360 
1 0 0
#HDR
-1
-1
#GR
NM

0.00002384185791015625
0.0
320.000000
0.500000
270
8
0.000000
0.000000
#DATA
320.000000	0.000000 
320.500000	0.000000 
321.000000	0.000000 
321.500000	0.000000 
322.000000	0.000000 
322.500000	0.000000 
323.000000	0.000000 
323.500000	0.000000 
324.000000	0.000000 
324.500000	0.000000 
325.000000	0.000000 
325.500000	0.000000 
326.000000	0.000000 
326.500000	0.000000 
327.000000	0.000000 
327.500000	0.000000 
328.000000	0.000000 
328.500000	0.000000 
329.000000	0.000000 
329.500000	0.000000 
330.000000	0.000000 
330.500000	0.000000 
331.000000	0.000000 
331.500000	0.000000 
332.000000	0.000000 
332.500000	0.000000 
333.000000	0.000000 
333.500000	0.000000 
334.000000	0.000000 
334.500000	0.000000 
335.000000	0.000000 
335.500000	0.000000 
336.000000	0.000000 
336.500000	0.000000 
337.000000	0.000000 
337.500000	0.000000 
338.000000	0.000000 
338.500000	0.000000 
339.000000	0.000000 
339.500000	0.000000 
340.000000	0.000000 
340.500000	0.000000 
341.000000	0.000000 
341.500000	0.000000 
342.000000	0.000000 
342.500000	0.000000 
343.000000	0.000000 
343.500000	0.000000 
344.000000	0.000000 
344.500000	0.000000 
345.000000	0.000000 
345.500000	0.000000 
346.000000	0.000000 
346.500000	0.000000 
347.000000	0.000000 
347.500000	0.000000 
348.000000	0.000000 
348.500000	0.000000 
349.000000	0.000000 
349.500000	0.000000 
350.000000	0.000000 
350.500000	0.000000 
351.000000	0.000000 
351.500000	0.000000 
352.000000	0.000000 
352.500000	0.000000 
353.000000	0.000000 
353.500000	0.000000 
354.000000	0.000000 
354.500000	0.000000 
355.000000	0.000000 
355.500000	0.000000 
356.000000	0.000000 
356.500000	0.000000 
357.000000	0.000000 
357.500000	0.000000 
358.000000	0.000000 
358.500000	0.000000 
359.000000	0.000000 
359.500000	0.000000 
360.000000	0.000000 
360.500000	0.000000 
361.000000	0.000000 
361.500000	0.000000 
362.000000	0.000000 
362.500000	0.000000 
363.000000	0.000000 
363.500000	0.000000 
364.000000	0.000000 
364.500000	0.000000 
365.000000	0.000000 
365.500000	0.000000 
366.000000	0.000000 
366.500000	0.000000 
367.000000	0.000000 
367.500000	0.000000 
368.000000	0.000000 
368.500000	0.000000 
369.000000	0.000000 
369.500000	0.000000 
370.000000	0.000000 
370.500000	0.000000 
371.000000	0.000000 
371.500000	0.000000 
372.000000	0.000000 
372.500000	0.000000 
373.000000	0.000000 
373.500000	0.000000 
374.000000	0.000000 
374.500000	0.000000 
375.000000	0.000000 
375.500000	0.000000 
376.000000	0.000000 
376.500000	0.000000 
377.000000	0.000000 
377.500000	0.000000 
378.000000	0.000000 
378.500000	0.000000 
379.000000	0.000000 
379.500000	0.000000 
380.000000	0.000000 
380.500000	0.000000 
381.000000	0.000000 
381.500000	0.000000 
382.000000	0.000000 
382.500000	0.000000 
383.000000	0.000000 
383.500000	0.000000 
384.000000	0.000000 
384.500000	0.000000 
385.000000	0.000000 
385.500000	0.000000 
386.000000	0.000000 
386.500000	0.000000 
387.000000	0.000000 
387.500000	0.000000 
388.000000	0.000000 
388.500000	0.000000 
389.000000	0.000000 
389.500000	0.000000 
390.000000	0.000000 
390.500000	0.000000 
391.000000	0.000000 
391.500000	0.000000 
392.000000	0.000000 
392.500000	0.000000 
393.000000	0.000000 
393.500000	0.000000 
394.000000	0.000000 
394.500000	0.000000 
395.000000	0.000000 
395.500000	0.000000 
396.000000	0.000000 
396.500000	0.000000 
397.000000	0.000000 
397.500000	0.000000 
398.000000	0.000000 
398.500000	0.000000 
399.000000	0.000000 
399.500000	0.000000 
400.000000	0.000000 
400.500000	0.000000 
401.000000	0.000000 
401.500000	0.000000 
402.000000	0.000000 
402.500000	0.000000 
403.000000	0.000000 
403.500000	0.000000 
404.000000	0.000000 
404.500000	0.000000 
405.000000	0.000000 
405.500000	0.000000 
406.000000	0.000000 
406.500000	0.000000 
407.000000	0.000000 
407.500000	0.000000 
408.000000	0.000000 
408.500000	0.000000 
409.000000	0.000000 
409.500000	0.000000 
410.000000	0.000000 
410.500000	0.000000 
411.000000	0.000000 
411.500000	0.000000 
412.000000	0.000000 
412.500000	0.000000 
413.000000	0.000000 
413.500000	0.000000 
414.000000	0.000000 
414.500000	0.000000 
415.000000	0.000000 
415.500000	0.000000 
416.000000	0.000000 
416.500000	0.000000 
417.000000	0.000000 
417.500000	0.000000 
418.000000	0.000000 
418.500000	0.000000 
419.000000	0.000000 
419.500000	0.000000 
420.000000	0.000000 
420.500000	0.000000 
421.000000	0.000000 
421.500000	0.000000 
422.000000	0.000000 
422.500000	0.000000 
423.000000	0.000000 
423.500000	0.000000 
424.000000	0.000000 
424.500000	0.000000 
425.000000	0.000000 
425.500000	0.000000 
426.000000	0.000000 
426.500000	0.000000 
427.000000	0.000000 
427.500000	0.000000 
428.000000	0.000000 
428.500000	0.000000 
429.000000	0.000000 
429.500000	0.000000 
430.000000	0.000000 
430.500000	0.000000 
431.000000	0.000000 
431.500000	0.000000 
432.000000	0.000000 
432.500000	0.000000 
433.000000	0.000000 
433.500000	0.000000 
434.000000	0.000000 
434.500000	0.000000 
435.000000	0.000000 
435.500000	0.000000 
436.000000	0.000000 
436.500000	0.000000 
437.000000	0.000000 
437.500000	0.000000 
438.000000	0.000000 
438.500000	0.000000 
439.000000	0.000000 
439.500000	0.000000 
440.000000	0.000000 
440.500000	0.000000 
441.000000	0.000000 
441.500000	0.000000 
442.000000	0.000000 
442.500000	0.000000 
443.000000	0.000000 
443.500000	0.000000 
444.000000	0.000000 
444.500000	0.000000 
445.000000	0.000000 
445.500000	0.000000 
446.000000	0.000000 
446.500000	0.000000 
447.000000	0.000000 
447.500000	0.000000 
448.000000	0.000000 
448.500000	0.000000 
449.000000	0.000000 
449.500000	0.000000 
450.000000	0.000000 
450.500000	0.000000 
451.000000	0.000000 
451.500000	0.000000 
452.000000	0.000000 
452.500000	0.000000 
453.000000	0.000000 
453.500000	0.000000 
454.000000	0.000000 
454.500000	0.000000 

