PE FL                   SPECTRUM    ASCII       PEDS        1.60        
  -1
01#139.SP
02/03/16
02:58:30.00
02/03/16
03:01:25.00


700.000000
1









LS55
400.00
5.00
5.00
SCAN
1
20
100
100
0
100
0
1
0
1
7
ON
458 300 
1 0 0
#HDR
-1
-1
#GR
NM

0.00002384185791015625
0.0
420.000000
0.500000
561
8
0.004333
-0.000484
#DATA
420.000000	0.000000  
420.500000	0.000000  
421.000000	0.000000  
421.500000	0.000000  
422.000000	0.000000  
422.500000	0.000000  
423.000000	0.000000  
423.500000	0.000000  
424.000000	0.000000  
424.500000	0.000000  
425.000000	0.000000  
425.500000	0.000000  
426.000000	0.000000  
426.500000	0.000000  
427.000000	0.000000  
427.500000	0.000000  
428.000000	0.000000  
428.500000	0.000000  
429.000000	0.000000  
429.500000	0.000000  
430.000000	0.000000  
430.500000	0.000000  
431.000000	0.000000  
431.500000	0.000000  
432.000000	0.000000  
432.500000	0.000000  
433.000000	0.000000  
433.500000	0.000000  
434.000000	0.000000  
434.500000	0.000000  
435.000000	0.000000  
435.500000	0.000000  
436.000000	0.000000  
436.500000	0.000000  
437.000000	0.000000  
437.500000	0.000000  
438.000000	0.000000  
438.500000	0.000000  
439.000000	0.000000  
439.500000	0.000000  
440.000000	0.000000  
440.500000	0.000000  
441.000000	0.000000  
441.500000	0.000000  
442.000000	0.000000  
442.500000	0.000000  
443.000000	0.000000  
443.500000	0.000000  
444.000000	0.000000  
444.500000	0.000000  
445.000000	0.000000  
445.500000	0.000000  
446.000000	0.000000  
446.500000	0.000000  
447.000000	0.000000  
447.500000	0.000000  
448.000000	0.000000  
448.500000	0.000000  
449.000000	0.000000  
449.500000	0.000000  
450.000000	0.000000  
450.500000	0.000000  
451.000000	0.000000  
451.500000	0.000000  
452.000000	0.000000  
452.500000	0.000000  
453.000000	0.000000  
453.500000	0.000000  
454.000000	0.000000  
454.500000	0.000000  
455.000000	0.000000  
455.500000	0.000000  
456.000000	0.000000  
456.500000	0.000000  
457.000000	0.000000  
457.500000	0.000000  
458.000000	0.000000  
458.500000	0.000000  
459.000000	0.000000  
459.500000	0.000000  
460.000000	0.000000  
460.500000	0.000000  
461.000000	0.000000  
461.500000	0.000000  
462.000000	0.000000  
462.500000	0.000000  
463.000000	0.000000  
463.500000	0.000000  
464.000000	0.000000  
464.500000	0.000000  
465.000000	0.000000  
465.500000	0.000000  
466.000000	0.000000  
466.500000	0.000000  
467.000000	0.000000  
467.500000	0.000000  
468.000000	0.000000  
468.500000	0.000000  
469.000000	0.000000  
469.500000	0.000000  
470.000000	0.000000  
470.500000	0.000000  
471.000000	0.000000  
471.500000	0.000000  
472.000000	0.000000  
472.500000	0.000000  
473.000000	0.000000  
473.500000	0.000000  
474.000000	0.000000  
474.500000	0.000000  
475.000000	0.000000  
475.500000	0.000000  
476.000000	0.000000  
476.500000	0.000000  
477.000000	0.000000  
477.500000	0.000000  
478.000000	0.000000  
478.500000	0.000000  
479.000000	0.000000  
479.500000	0.000000  
480.000000	0.000000  
480.500000	0.000000  
481.000000	0.000000  
481.500000	0.000000  
482.000000	0.000000  
482.500000	0.000000  
483.000000	0.000000  
483.500000	0.000000  
484.000000	0.000000  
484.500000	0.000000  
485.000000	0.000000  
485.500000	0.000000  
486.000000	0.000000  
486.500000	0.000000  
487.000000	0.000000  
487.500000	0.000000  
488.000000	0.000000  
488.500000	0.000000  
489.000000	0.000000  
489.500000	0.000000  
490.000000	0.000000  
490.500000	0.000000  
491.000000	0.000000  
491.500000	0.000000  
492.000000	0.000000  
492.500000	0.000000  
493.000000	0.000000  
493.500000	0.000000  
494.000000	0.000000  
494.500000	0.000000  
495.000000	0.000000  
495.500000	0.000000  
496.000000	0.000000  
496.500000	0.000000  
497.000000	0.000000  
497.500000	0.000000  
498.000000	0.000000  
498.500000	0.000000  
499.000000	0.000000  
499.500000	0.000000  
500.000000	0.000000  
500.500000	0.000000  
501.000000	0.000000  
501.500000	0.000000  
502.000000	0.000000  
502.500000	0.000000  
503.000000	0.000000  
503.500000	0.000000  
504.000000	0.000000  
504.500000	0.000000  
505.000000	0.000000  
505.500000	0.000000  
506.000000	0.000000  
506.500000	-0.000181 
507.000000	-0.000280 
507.500000	0.001363  
508.000000	0.003500  
508.500000	0.004333  
509.000000	0.002386  
509.500000	0.000363  
510.000000	-0.000484 
510.500000	0.000000  
511.000000	0.000000  
511.500000	0.000000  
512.000000	0.000000  
512.500000	0.000000  
513.000000	0.000000  
513.500000	0.000000  
514.000000	0.000000  
514.500000	0.000000  
515.000000	0.000000  
515.500000	0.000000  
516.000000	0.000000  
516.500000	0.000000  
517.000000	0.000000  
517.500000	0.000000  
518.000000	0.000000  
518.500000	0.000000  
519.000000	0.000000  
519.500000	0.000000  
520.000000	0.000000  
520.500000	0.000000  
521.000000	0.000000  
521.500000	0.000000  
522.000000	0.000000  
522.500000	0.000000  
523.000000	0.000000  
523.500000	0.000000  
524.000000	0.000000  
524.500000	0.000000  
525.000000	0.000000  
525.500000	0.000000  
526.000000	0.000000  
526.500000	0.000000  
527.000000	0.000000  
527.500000	0.000000  
528.000000	0.000000  
528.500000	0.000000  
529.000000	0.000000  
529.500000	0.000000  
530.000000	0.000000  
530.500000	0.000000  
531.000000	0.000000  
531.500000	0.000000  
532.000000	0.000000  
532.500000	0.000000  
533.000000	0.000000  
533.500000	0.000000  
534.000000	0.000000  
534.500000	0.000000  
535.000000	0.000000  
535.500000	0.000000  
536.000000	0.000000  
536.500000	0.000000  
537.000000	0.000000  
537.500000	0.000000  
538.000000	0.000000  
538.500000	0.000000  
539.000000	0.000000  
539.500000	0.000000  
540.000000	0.000000  
540.500000	0.000000  
541.000000	0.000000  
541.500000	0.000000  
542.000000	0.000000  
542.500000	0.000000  
543.000000	0.000000  
543.500000	0.000000  
544.000000	0.000000  
544.500000	0.000000  
545.000000	0.000000  
545.500000	0.000000  
546.000000	0.000000  
546.500000	0.000000  
547.000000	0.000000  
547.500000	0.000000  
548.000000	0.000000  
548.500000	0.000000  
549.000000	0.000000  
549.500000	0.000000  
550.000000	0.000000  
550.500000	0.000000  
551.000000	0.000000  
551.500000	0.000000  
552.000000	0.000000  
552.500000	0.000000  
553.000000	0.000000  
553.500000	0.000000  
554.000000	0.000000  
554.500000	0.000000  
555.000000	0.000000  
555.500000	0.000000  
556.000000	0.000000  
556.500000	0.000000  
557.000000	0.000000  
557.500000	0.000000  
558.000000	0.000000  
558.500000	0.000000  
559.000000	0.000000  
559.500000	0.000000  
560.000000	0.000000  
560.500000	0.000000  
561.000000	0.000000  
561.500000	0.000000  
562.000000	0.000000  
562.500000	0.000000  
563.000000	0.000000  
563.500000	0.000000  
564.000000	0.000000  
564.500000	0.000000  
565.000000	0.000000  
565.500000	0.000000  
566.000000	0.000000  
566.500000	0.000000  
567.000000	0.000000  
567.500000	0.000000  
568.000000	0.000000  
568.500000	0.000000  
569.000000	0.000000  
569.500000	0.000000  
570.000000	0.000000  
570.500000	0.000000  
571.000000	0.000000  
571.500000	0.000000  
572.000000	0.000000  
572.500000	0.000000  
573.000000	0.000000  
573.500000	0.000000  
574.000000	0.000000  
574.500000	0.000000  
575.000000	0.000000  
575.500000	0.000000  
576.000000	0.000000  
576.500000	0.000000  
577.000000	0.000000  
577.500000	0.000000  
578.000000	0.000000  
578.500000	0.000000  
579.000000	0.000000  
579.500000	0.000000  
580.000000	0.000000  
580.500000	0.000000  
581.000000	0.000000  
581.500000	0.000000  
582.000000	0.000000  
582.500000	0.000000  
583.000000	0.000000  
583.500000	0.000000  
584.000000	0.000000  
584.500000	0.000000  
585.000000	0.000000  
585.500000	0.000000  
586.000000	0.000000  
586.500000	0.000000  
587.000000	0.000000  
587.500000	0.000000  
588.000000	0.000000  
588.500000	0.000000  
589.000000	0.000000  
589.500000	0.000000  
590.000000	0.000000  
590.500000	0.000000  
591.000000	0.000000  
591.500000	0.000000  
592.000000	0.000000  
592.500000	0.000000  
593.000000	0.000000  
593.500000	0.000000  
594.000000	0.000000  
594.500000	0.000000  
595.000000	0.000000  
595.500000	0.000000  
596.000000	0.000000  
596.500000	0.000000  
597.000000	0.000000  
597.500000	0.000000  
598.000000	0.000000  
598.500000	0.000000  
599.000000	0.000000  
599.500000	0.000000  
600.000000	0.000000  
600.500000	0.000000  
601.000000	0.000000  
601.500000	0.000000  
602.000000	0.000000  
602.500000	0.000000  
603.000000	0.000000  
603.500000	0.000000  
604.000000	0.000000  
604.500000	0.000000  
605.000000	0.000000  
605.500000	0.000000  
606.000000	0.000000  
606.500000	0.000000  
607.000000	0.000000  
607.500000	0.000000  
608.000000	0.000000  
608.500000	0.000000  
609.000000	0.000000  
609.500000	0.000000  
610.000000	0.000000  
610.500000	0.000000  
611.000000	0.000000  
611.500000	0.000000  
612.000000	0.000000  
612.500000	0.000000  
613.000000	0.000000  
613.500000	0.000000  
614.000000	0.000000  
614.500000	0.000000  
615.000000	0.000000  
615.500000	0.000000  
616.000000	0.000000  
616.500000	0.000000  
617.000000	0.000000  
617.500000	0.000000  
618.000000	0.000000  
618.500000	0.000000  
619.000000	0.000000  
619.500000	0.000000  
620.000000	0.000000  
620.500000	0.000000  
621.000000	0.000000  
621.500000	0.000000  
622.000000	0.000000  
622.500000	0.000000  
623.000000	0.000000  
623.500000	0.000000  
624.000000	0.000000  
624.500000	0.000000  
625.000000	0.000000  
625.500000	0.000000  
626.000000	0.000000  
626.500000	0.000000  
627.000000	0.000000  
627.500000	0.000000  
628.000000	0.000000  
628.500000	0.000000  
629.000000	0.000000  
629.500000	0.000000  
630.000000	0.000000  
630.500000	0.000000  
631.000000	0.000000  
631.500000	0.000000  
632.000000	0.000000  
632.500000	0.000000  
633.000000	0.000000  
633.500000	0.000000  
634.000000	0.000000  
634.500000	0.000000  
635.000000	0.000000  
635.500000	0.000000  
636.000000	0.000000  
636.500000	0.000000  
637.000000	0.000000  
637.500000	0.000000  
638.000000	0.000000  
638.500000	0.000000  
639.000000	0.000000  
639.500000	0.000000  
640.000000	0.000000  
640.500000	0.000000  
641.000000	0.000000  
641.500000	0.000000  
642.000000	0.000000  
642.500000	0.000000  
643.000000	0.000000  
643.500000	0.000000  
644.000000	0.000000  
644.500000	0.000000  
645.000000	0.000000  
645.500000	0.000000  
646.000000	0.000000  
646.500000	0.000000  
647.000000	0.000000  
647.500000	0.000000  
648.000000	0.000000  
648.500000	0.000000  
649.000000	0.000000  
649.500000	0.000000  
650.000000	0.000000  
650.500000	0.000000  
651.000000	0.000000  
651.500000	0.000000  
652.000000	0.000000  
652.500000	0.000000  
653.000000	0.000000  
653.500000	0.000000  
654.000000	0.000000  
654.500000	0.000000  
655.000000	0.000000  
655.500000	0.000000  
656.000000	0.000000  
656.500000	0.000000  
657.000000	0.000000  
657.500000	0.000000  
658.000000	0.000000  
658.500000	0.000000  
659.000000	0.000000  
659.500000	0.000000  
660.000000	0.000000  
660.500000	0.000000  
661.000000	0.000000  
661.500000	0.000000  
662.000000	0.000000  
662.500000	0.000000  
663.000000	0.000000  
663.500000	0.000000  
664.000000	0.000000  
664.500000	0.000000  
665.000000	0.000000  
665.500000	0.000000  
666.000000	0.000000  
666.500000	0.000000  
667.000000	0.000000  
667.500000	0.000000  
668.000000	0.000000  
668.500000	0.000000  
669.000000	0.000000  
669.500000	0.000000  
670.000000	0.000000  
670.500000	0.000000  
671.000000	0.000000  
671.500000	0.000000  
672.000000	0.000000  
672.500000	0.000000  
673.000000	0.000000  
673.500000	0.000000  
674.000000	0.000000  
674.500000	0.000000  
675.000000	0.000000  
675.500000	0.000000  
676.000000	0.000000  
676.500000	0.000000  
677.000000	0.000000  
677.500000	0.000000  
678.000000	0.000000  
678.500000	0.000000  
679.000000	0.000000  
679.500000	0.000000  
680.000000	0.000000  
680.500000	0.000000  
681.000000	0.000000  
681.500000	0.000000  
682.000000	0.000000  
682.500000	0.000000  
683.000000	0.000000  
683.500000	0.000000  
684.000000	0.000000  
684.500000	0.000000  
685.000000	0.000000  
685.500000	0.000000  
686.000000	0.000000  
686.500000	0.000000  
687.000000	0.000000  
687.500000	0.000000  
688.000000	0.000000  
688.500000	0.000000  
689.000000	0.000000  
689.500000	0.000000  
690.000000	0.000000  
690.500000	0.000000  
691.000000	0.000000  
691.500000	0.000000  
692.000000	0.000000  
692.500000	0.000000  
693.000000	0.000000  
693.500000	0.000000  
694.000000	0.000000  
694.500000	0.000000  
695.000000	0.000000  
695.500000	0.000000  
696.000000	0.000000  
696.500000	0.000000  
697.000000	0.000000  
697.500000	0.000000  
698.000000	0.000000  
698.500000	0.000000  
699.000000	0.000000  
699.500000	0.000000  
700.000000	0.000000  

