PE FL                   SPECTRUM    ASCII       PEDS        1.60        
  -1
01#142.SP
02/03/16
03:09:39.00
02/03/16
03:11:39.00


410.000000
1









LS55
435.00
5.00
5.00
SCAN
1
20
100
100
0
100
0
0
0
1
7
ON
700 375 
1 0 0
#HDR
-1
-1
#GR
NM

0.00002384185791015625
0.0
230.000000
0.500000
361
8
0.042446
-0.000606
#DATA
230.000000	0.000000  
230.500000	-0.000227 
231.000000	0.000954  
231.500000	0.002515  
232.000000	0.003181  
232.500000	0.001772  
233.000000	0.000287  
233.500000	-0.000363 
234.000000	0.000000  
234.500000	0.000000  
235.000000	0.000000  
235.500000	0.000000  
236.000000	0.000000  
236.500000	0.000000  
237.000000	0.000000  
237.500000	0.000000  
238.000000	0.000000  
238.500000	0.000000  
239.000000	0.000000  
239.500000	0.000000  
240.000000	0.000000  
240.500000	0.000000  
241.000000	0.000000  
241.500000	0.000000  
242.000000	0.000000  
242.500000	0.000000  
243.000000	0.000000  
243.500000	0.000000  
244.000000	0.000000  
244.500000	0.000000  
245.000000	0.000000  
245.500000	0.000000  
246.000000	0.000000  
246.500000	0.000000  
247.000000	0.000000  
247.500000	0.000000  
248.000000	0.000000  
248.500000	0.000000  
249.000000	0.000000  
249.500000	0.000000  
250.000000	0.000000  
250.500000	0.000000  
251.000000	0.000000  
251.500000	0.000000  
252.000000	0.000000  
252.500000	0.000000  
253.000000	0.000000  
253.500000	0.000000  
254.000000	0.000000  
254.500000	0.000000  
255.000000	0.000000  
255.500000	0.000000  
256.000000	0.000000  
256.500000	0.000000  
257.000000	0.000000  
257.500000	0.000000  
258.000000	0.000000  
258.500000	0.000000  
259.000000	0.000000  
259.500000	0.000000  
260.000000	0.000000  
260.500000	0.000000  
261.000000	0.000000  
261.500000	0.000000  
262.000000	0.000000  
262.500000	0.000000  
263.000000	0.000000  
263.500000	0.000000  
264.000000	0.000000  
264.500000	0.000000  
265.000000	0.000000  
265.500000	-0.000181 
266.000000	-0.000401 
266.500000	0.001500  
267.000000	0.004045  
267.500000	0.005212  
268.000000	0.002931  
268.500000	0.000499  
269.000000	-0.000606 
269.500000	0.000000  
270.000000	0.000000  
270.500000	0.000000  
271.000000	0.000000  
271.500000	0.000000  
272.000000	0.000000  
272.500000	0.000000  
273.000000	0.000000  
273.500000	0.000000  
274.000000	0.000000  
274.500000	0.000000  
275.000000	0.000000  
275.500000	0.000000  
276.000000	0.000000  
276.500000	0.000000  
277.000000	0.000000  
277.500000	0.000000  
278.000000	0.000000  
278.500000	-0.000060 
279.000000	-0.000174 
279.500000	0.000545  
280.000000	0.001530  
280.500000	0.002030  
281.000000	0.001159  
281.500000	0.000212  
282.000000	-0.000242 
282.500000	0.000000  
283.000000	0.000000  
283.500000	0.000000  
284.000000	-0.000060 
284.500000	-0.000113 
285.000000	0.000477  
285.500000	0.001257  
286.000000	0.001590  
286.500000	0.000886  
287.000000	0.000143  
287.500000	-0.000181 
288.000000	0.000000  
288.500000	0.000000  
289.000000	0.000000  
289.500000	0.000000  
290.000000	0.000000  
290.500000	0.000000  
291.000000	0.000000  
291.500000	0.000000  
292.000000	0.000000  
292.500000	0.000000  
293.000000	0.000000  
293.500000	0.000000  
294.000000	0.000000  
294.500000	-0.000060 
295.000000	-0.000053 
295.500000	0.000409  
296.000000	0.000984  
296.500000	0.001151  
297.000000	0.000613  
297.500000	0.000075  
298.000000	-0.000181 
298.500000	-0.000053 
299.000000	0.000409  
299.500000	0.000984  
300.000000	0.001151  
300.500000	0.000613  
301.000000	0.000075  
301.500000	-0.000121 
302.000000	-0.000060 
302.500000	-0.000053 
303.000000	0.000409  
303.500000	0.000984  
304.000000	0.001151  
304.500000	0.000553  
305.000000	0.000022  
305.500000	0.000287  
306.000000	0.000984  
306.500000	0.001090  
307.000000	0.000560  
307.500000	0.000484  
308.000000	0.000863  
308.500000	0.001151  
309.000000	0.000613  
309.500000	0.000015  
310.000000	-0.000174 
310.500000	0.000409  
311.000000	0.000924  
311.500000	0.001037  
312.000000	0.000969  
312.500000	0.001348  
313.000000	0.001787  
313.500000	0.002598  
314.000000	0.003340  
314.500000	0.003681  
315.000000	0.002530  
315.500000	0.000833  
316.000000	-0.000227 
316.500000	-0.000181 
317.000000	-0.000053 
317.500000	0.000409  
318.000000	0.000924  
318.500000	0.001098  
319.000000	0.001022  
319.500000	0.001060  
320.000000	0.000969  
320.500000	0.000499  
321.000000	0.000431  
321.500000	0.001272  
322.000000	0.002136  
322.500000	0.001765  
323.000000	0.000689  
323.500000	-0.000045 
324.000000	-0.000121 
324.500000	-0.000121 
325.000000	-0.000409 
325.500000	0.000734  
326.000000	0.003810  
326.500000	0.006287  
327.000000	0.005439  
327.500000	0.002992  
328.000000	0.002613  
328.500000	0.004484  
329.000000	0.005098  
329.500000	0.004939  
330.000000	0.004727  
330.500000	0.007030  
331.000000	0.007598  
331.500000	0.006696  
332.000000	0.003643  
332.500000	0.002901  
333.000000	0.002909  
333.500000	0.003189  
334.000000	0.002219  
334.500000	0.002128  
335.000000	0.002969  
335.500000	0.003613  
336.000000	0.003272  
336.500000	0.002272  
337.000000	0.000931  
337.500000	0.000378  
338.000000	0.000340  
338.500000	0.002287  
339.000000	0.004704  
339.500000	0.007030  
340.000000	0.007121  
340.500000	0.006053  
341.000000	0.005174  
341.500000	0.005189  
342.000000	0.006106  
342.500000	0.007621  
343.000000	0.008159  
343.500000	0.005522  
344.000000	0.002977  
344.500000	0.003856  
345.000000	0.007272  
345.500000	0.008500  
346.000000	0.005666  
346.500000	0.003424  
347.000000	0.004636  
347.500000	0.008734  
348.000000	0.010060  
348.500000	0.008628  
349.000000	0.005234  
349.500000	0.003893  
350.000000	0.005568  
350.500000	0.008363  
351.000000	0.009121  
351.500000	0.006484  
352.000000	0.003462  
352.500000	0.002507  
353.000000	0.004287  
353.500000	0.005833  
354.000000	0.006265  
354.500000	0.006734  
355.000000	0.008151  
355.500000	0.010234  
356.000000	0.010090  
356.500000	0.007606  
357.000000	0.004515  
357.500000	0.002977  
358.000000	0.003492  
358.500000	0.006090  
359.000000	0.008878  
359.500000	0.009053  
360.000000	0.006765  
360.500000	0.004477  
361.000000	0.004045  
361.500000	0.005242  
362.000000	0.006424  
362.500000	0.006257  
363.000000	0.006424  
363.500000	0.008318  
364.000000	0.012068  
364.500000	0.013840  
365.000000	0.015295  
365.500000	0.014454  
366.000000	0.014060  
366.500000	0.010818  
367.000000	0.009515  
367.500000	0.009719  
368.000000	0.012856  
368.500000	0.013242  
369.000000	0.011606  
369.500000	0.009280  
370.000000	0.010196  
370.500000	0.013227  
371.000000	0.013340  
371.500000	0.010113  
372.000000	0.008227  
372.500000	0.011901  
373.000000	0.019500  
373.500000	0.024583  
374.000000	0.025712  
374.500000	0.025522  
375.000000	0.030030  
375.500000	0.037628  
376.000000	0.042446  
376.500000	0.040628  
377.000000	0.036893  
377.500000	0.036409  
378.000000	0.037287  
378.500000	0.033333  
379.000000	0.026257  
379.500000	0.021242  
380.000000	0.022181  
380.500000	0.024090  
381.000000	0.024924  
381.500000	0.022621  
382.000000	0.020848  
382.500000	0.019378  
383.000000	0.018568  
383.500000	0.017954  
384.000000	0.016250  
384.500000	0.015583  
385.000000	0.014053  
385.500000	0.013196  
386.000000	0.011393  
386.500000	0.010742  
387.000000	0.010212  
387.500000	0.011780  
388.000000	0.014621  
388.500000	0.016325  
389.000000	0.013583  
389.500000	0.006984  
390.000000	0.003212  
390.500000	0.004749  
391.000000	0.009189  
391.500000	0.010409  
392.000000	0.008106  
392.500000	0.006121  
393.000000	0.006651  
393.500000	0.008909  
394.000000	0.009507  
394.500000	0.009128  
395.000000	0.008234  
395.500000	0.008310  
396.000000	0.007522  
396.500000	0.006606  
397.000000	0.005863  
397.500000	0.006295  
398.000000	0.007424  
398.500000	0.007689  
399.000000	0.006727  
399.500000	0.005863  
400.000000	0.006053  
400.500000	0.006787  
401.000000	0.009439  
401.500000	0.013166  
402.000000	0.015037  
402.500000	0.012227  
403.000000	0.008393  
403.500000	0.006939  
404.000000	0.007462  
404.500000	0.006856  
405.000000	0.005189  
405.500000	0.004265  
406.000000	0.004037  
406.500000	0.005537  
407.000000	0.007075  
407.500000	0.007848  
408.000000	0.008924  
408.500000	0.009984  
409.000000	0.009613  
409.500000	0.008075  
410.000000	0.005999  

