PE FL                   SPECTRUM    ASCII       PEDS        1.60        
  -1
CDSRT#66.SP
02/03/22
04:51:45.00
02/03/22
04:53:48.00


450.000000
1









LS55
520.00
5.00
5.00
SCAN
1
20
100
100
0
100
0
0
0
1
7
ON
490 460 
1 0 0
#HDR
-1
-1
#GR
NM

0.00002384185791015625
0.0
270.000000
0.500000
361
8
160.971992
6.687393
#DATA
270.000000	7.421999   
270.500000	7.221537   
271.000000	7.162674   
271.500000	7.236825   
272.000000	7.336833   
272.500000	7.409424   
273.000000	7.441128   
273.500000	7.398674   
274.000000	7.259212   
274.500000	7.113045   
275.000000	7.047651   
275.500000	7.079030   
276.000000	7.105007   
276.500000	7.095174   
277.000000	7.066143   
277.500000	7.064984   
278.000000	7.077174   
278.500000	7.082287   
279.000000	7.089500   
279.500000	7.063863   
280.000000	7.012219   
280.500000	6.938000   
281.000000	6.893325   
281.500000	6.870916   
282.000000	6.844734   
282.500000	6.809984   
283.000000	6.773545   
283.500000	6.788871   
284.000000	6.807886   
284.500000	6.811795   
285.000000	6.743992   
285.500000	6.687393   
286.000000	6.701560   
286.500000	6.780931   
287.000000	6.859310   
287.500000	6.897340   
288.000000	6.914393   
288.500000	6.975265   
289.000000	7.097772   
289.500000	7.204075   
290.000000	7.234954   
290.500000	7.243166   
291.000000	7.351469   
291.500000	7.571848   
292.000000	7.879643   
292.500000	8.191431   
293.000000	8.568575   
293.500000	9.049772   
294.000000	9.689333   
294.500000	10.401969  
295.000000	11.212075  
295.500000	12.217098  
296.000000	13.421924  
296.500000	14.802000  
297.000000	16.369848  
297.500000	18.292575  
298.000000	20.543462  
298.500000	22.931780  
299.000000	25.463810  
299.500000	28.254522  
300.000000	31.397242  
300.500000	34.649386  
301.000000	37.811522  
301.500000	40.684113  
302.000000	43.338015  
302.500000	45.860393  
303.000000	48.325590  
303.500000	50.753446  
304.000000	52.901909  
304.500000	54.769825  
305.000000	56.286416  
305.500000	57.746689  
306.000000	59.139840  
306.500000	60.431022  
307.000000	61.375181  
307.500000	62.243560  
308.000000	63.189803  
308.500000	64.252606  
309.000000	65.186280  
309.500000	65.890931  
310.000000	66.515090  
310.500000	67.169568  
311.000000	67.796174  
311.500000	68.317492  
312.000000	68.702030  
312.500000	69.152719  
313.000000	69.778666  
313.500000	70.405257  
314.000000	70.810280  
314.500000	71.102962  
315.000000	71.461962  
315.500000	71.940295  
316.000000	72.432446  
316.500000	72.851992  
317.000000	73.239712  
317.500000	73.599560  
318.000000	73.974901  
318.500000	74.346219  
319.000000	74.723621  
319.500000	75.175325  
320.000000	75.769484  
320.500000	76.388977  
321.000000	76.998939  
321.500000	77.635325  
322.000000	78.259356  
322.500000	78.711454  
323.000000	78.983499  
323.500000	79.270560  
324.000000	79.644606  
324.500000	80.079689  
325.000000	80.541590  
325.500000	81.125378  
326.000000	81.714575  
326.500000	82.247204  
327.000000	82.818515  
327.500000	83.552250  
328.000000	84.318545  
328.500000	84.905522  
329.000000	85.318416  
329.500000	85.787075  
330.000000	86.395712  
330.500000	87.016712  
331.000000	87.624280  
331.500000	88.218090  
332.000000	88.889946  
332.500000	89.593515  
333.000000	90.347712  
333.500000	91.066659  
334.000000	91.837583  
334.500000	92.506803  
335.000000	93.137651  
335.500000	93.751492  
336.000000	94.583212  
336.500000	95.573280  
337.000000	96.530689  
337.500000	97.215181  
338.000000	97.909030  
338.500000	98.656856  
339.000000	99.533780  
339.500000	100.257401 
340.000000	100.943901 
340.500000	101.601189 
341.000000	102.547840 
341.500000	103.677113 
342.000000	104.886015 
342.500000	105.878219 
343.000000	106.617265 
343.500000	107.206598 
344.000000	107.805424 
344.500000	108.658916 
345.000000	109.753992 
345.500000	110.900780 
346.000000	111.866871 
346.500000	112.792530 
347.000000	113.754378 
347.500000	114.661022 
348.000000	115.530734 
348.500000	116.583416 
349.000000	117.802515 
349.500000	118.941090 
350.000000	119.917560 
350.500000	120.946931 
351.000000	122.178939 
351.500000	123.304545 
352.000000	124.221409 
352.500000	125.133272 
353.000000	126.309946 
353.500000	127.559840 
354.000000	128.731916 
354.500000	129.839568 
355.000000	131.011704 
355.500000	132.183818 
356.000000	133.207696 
356.500000	134.262106 
357.000000	135.366689 
357.500000	136.528272 
358.000000	137.731992 
358.500000	139.119901 
359.000000	140.531863 
359.500000	141.819409 
360.000000	142.787977 
360.500000	143.845257 
361.000000	145.142378 
361.500000	146.547742 
362.000000	147.701628 
362.500000	148.766522 
363.000000	150.026318 
363.500000	151.393962 
364.000000	152.500545 
364.500000	153.126621 
365.000000	153.923568 
365.500000	154.911545 
366.000000	155.923393 
366.500000	156.493128 
367.000000	156.882325 
367.500000	157.418068 
368.000000	158.216477 
368.500000	158.880371 
369.000000	159.354181 
369.500000	159.725954 
370.000000	160.176363 
370.500000	160.532871 
371.000000	160.837537 
371.500000	160.924151 
372.000000	160.930734 
372.500000	160.740545 
373.000000	160.675848 
373.500000	160.785674 
374.000000	160.971992 
374.500000	160.790075 
375.000000	160.219181 
375.500000	159.403704 
376.000000	158.681159 
376.500000	158.186030 
377.000000	157.970416 
377.500000	157.587636 
378.000000	156.829636 
378.500000	155.880113 
379.000000	155.120030 
379.500000	154.440045 
380.000000	153.572439 
380.500000	152.473492 
381.000000	151.383454 
381.500000	150.379545 
382.000000	149.391272 
382.500000	148.495750 
383.000000	147.603515 
383.500000	146.592204 
384.000000	145.397007 
384.500000	144.067977 
385.000000	142.662924 
385.500000	141.253636 
386.000000	139.888666 
386.500000	138.486893 
387.000000	137.015371 
387.500000	135.388462 
388.000000	133.699196 
388.500000	131.949871 
389.000000	130.221416 
389.500000	128.427848 
390.000000	126.603856 
390.500000	124.754477 
391.000000	123.081212 
391.500000	121.478984 
392.000000	119.836492 
392.500000	117.936848 
393.000000	116.042742 
393.500000	114.150363 
394.000000	112.436901 
394.500000	110.643136 
395.000000	108.886000 
395.500000	106.931992 
396.000000	104.971280 
396.500000	103.019318 
397.000000	101.364583 
397.500000	99.669166  
398.000000	97.898500  
398.500000	96.015318  
399.000000	94.285045  
399.500000	92.654378  
400.000000	91.034227  
400.500000	89.350742  
401.000000	87.773098  
401.500000	86.217522  
402.000000	84.686803  
402.500000	83.147439  
403.000000	81.705401  
403.500000	80.340045  
404.000000	78.876727  
404.500000	77.264196  
405.000000	75.720666  
405.500000	74.376219  
406.000000	73.081750  
406.500000	71.775439  
407.000000	70.357030  
407.500000	68.877128  
408.000000	67.416583  
408.500000	66.047053  
409.000000	64.766015  
409.500000	63.383060  
410.000000	61.850333  
410.500000	60.376992  
411.000000	59.073174  
411.500000	57.803030  
412.000000	56.588984  
412.500000	55.440000  
413.000000	54.343242  
413.500000	53.132250  
414.000000	51.852984  
414.500000	50.588045  
415.000000	49.441356  
415.500000	48.341992  
416.000000	47.328204  
416.500000	46.420280  
417.000000	45.598810  
417.500000	44.839068  
418.000000	44.111469  
418.500000	43.283242  
419.000000	42.416333  
419.500000	41.585893  
420.000000	40.862825  
420.500000	40.065022  
421.000000	39.327765  
421.500000	38.636780  
422.000000	38.066568  
422.500000	37.430560  
423.000000	36.774303  
423.500000	36.135871  
424.000000	35.528909  
424.500000	34.904530  
425.000000	34.318196  
425.500000	33.858553  
426.000000	33.445893  
426.500000	33.003492  
427.000000	32.385098  
427.500000	31.693166  
428.000000	31.034333  
428.500000	30.522840  
429.000000	30.095083  
429.500000	29.720553  
430.000000	29.332431  
430.500000	28.962840  
431.000000	28.589825  
431.500000	28.238272  
432.000000	27.850727  
432.500000	27.473431  
433.000000	27.091166  
433.500000	26.810606  
434.000000	26.478007  
434.500000	26.102621  
435.000000	25.636643  
435.500000	25.295446  
436.000000	24.965863  
436.500000	24.638075  
437.000000	24.257757  
437.500000	23.975674  
438.000000	23.794992  
438.500000	23.611787  
439.000000	23.333553  
439.500000	23.008636  
440.000000	22.781128  
440.500000	22.647174  
441.000000	22.476681  
441.500000	22.182106  
442.000000	21.851984  
442.500000	21.616386  
443.000000	21.480333  
443.500000	21.400053  
444.000000	21.321446  
444.500000	21.183931  
445.000000	20.948242  
445.500000	20.667386  
446.000000	20.479886  
446.500000	20.381053  
447.000000	20.335803  
447.500000	20.271204  
448.000000	20.206075  
448.500000	20.134128  
449.000000	20.008765  
449.500000	19.724265  
450.000000	19.303000  

