PE FL                   SPECTRUM    ASCII       PEDS        1.60        
  -1
CDSRT#64.SP
02/03/22
04:37:35.00
02/03/22
04:39:13.00


400.000000
1









LS55
450.00
5.00
5.00
SCAN
1
20
100
100
0
100
0
0
0
1
7
ON
420 400 
1 0 0
#HDR
-1
-1
#GR
NM

0.00002384185791015625
0.0
250.000000
0.500000
301
8
96.242984
6.400000
#DATA
250.000000	6.400000  
250.500000	6.528363  
251.000000	6.579856  
251.500000	6.612280  
252.000000	6.687909  
252.500000	6.836878  
253.000000	6.922560  
253.500000	6.964166  
254.000000	7.015522  
254.500000	7.120636  
255.000000	7.192946  
255.500000	7.182113  
256.000000	7.154613  
256.500000	7.162772  
257.000000	7.164636  
257.500000	7.191090  
258.000000	7.223121  
258.500000	7.283151  
259.000000	7.318916  
259.500000	7.386439  
260.000000	7.465598  
260.500000	7.599159  
261.000000	7.749750  
261.500000	7.949931  
262.000000	8.095196  
262.500000	8.164871  
263.000000	8.200643  
263.500000	8.270515  
264.000000	8.337598  
264.500000	8.410734  
265.000000	8.499833  
265.500000	8.602666  
266.000000	8.717280  
266.500000	8.775045  
267.000000	8.759901  
267.500000	8.684750  
268.000000	8.713212  
268.500000	8.879606  
269.000000	9.060303  
269.500000	9.101537  
270.000000	9.068075  
270.500000	9.081878  
271.000000	9.153515  
271.500000	9.211568  
272.000000	9.247287  
272.500000	9.287659  
273.000000	9.366227  
273.500000	9.407810  
274.000000	9.364378  
274.500000	9.313909  
275.000000	9.312886  
275.500000	9.349795  
276.000000	9.334083  
276.500000	9.320863  
277.000000	9.312583  
277.500000	9.304530  
278.000000	9.223893  
278.500000	9.154053  
279.000000	9.140295  
279.500000	9.170962  
280.000000	9.217719  
280.500000	9.220954  
281.000000	9.140583  
281.500000	9.011848  
282.000000	8.945931  
282.500000	8.971393  
283.000000	9.010037  
283.500000	8.986348  
284.000000	8.924651  
284.500000	8.868196  
285.000000	8.784439  
285.500000	8.668174  
286.000000	8.568371  
286.500000	8.524469  
287.000000	8.531106  
287.500000	8.515757  
288.000000	8.443946  
288.500000	8.335977  
289.000000	8.250000  
289.500000	8.204227  
290.000000	8.201159  
290.500000	8.226325  
291.000000	8.239530  
291.500000	8.257765  
292.000000	8.260068  
292.500000	8.327212  
293.000000	8.457863  
293.500000	8.647606  
294.000000	8.832765  
294.500000	9.104712  
295.000000	9.549227  
295.500000	10.152954 
296.000000	10.766606 
296.500000	11.355848 
297.000000	12.059113 
297.500000	12.950250 
298.000000	13.994287 
298.500000	15.168431 
299.000000	16.464500 
299.500000	17.797909 
300.000000	19.138765 
300.500000	20.536727 
301.000000	21.984136 
301.500000	23.420272 
302.000000	24.793856 
302.500000	26.122121 
303.000000	27.313310 
303.500000	28.338136 
304.000000	29.184681 
304.500000	29.969560 
305.000000	30.647674 
305.500000	31.330651 
306.000000	32.022386 
306.500000	32.710310 
307.000000	33.298681 
307.500000	33.838575 
308.000000	34.301659 
308.500000	34.697075 
309.000000	35.049340 
309.500000	35.413401 
310.000000	35.797227 
310.500000	36.123553 
311.000000	36.451128 
311.500000	36.780303 
312.000000	37.146696 
312.500000	37.437856 
313.000000	37.686606 
313.500000	37.868712 
314.000000	38.100545 
314.500000	38.326219 
315.000000	38.639924 
315.500000	38.960075 
316.000000	39.212000 
316.500000	39.325537 
317.000000	39.484901 
317.500000	39.795022 
318.000000	40.219818 
318.500000	40.569803 
319.000000	40.862575 
319.500000	41.278636 
320.000000	41.676606 
320.500000	41.959696 
321.000000	42.182553 
321.500000	42.494446 
322.000000	42.899992 
322.500000	43.320939 
323.000000	43.756946 
323.500000	44.231484 
324.000000	44.712325 
324.500000	44.974659 
325.000000	45.096272 
325.500000	45.318212 
326.000000	45.829848 
326.500000	46.483053 
327.000000	46.999886 
327.500000	47.414242 
328.000000	47.865583 
328.500000	48.432272 
329.000000	49.045750 
329.500000	49.674772 
330.000000	50.273446 
330.500000	50.782159 
331.000000	51.319333 
331.500000	51.911242 
332.000000	52.497265 
332.500000	52.943499 
333.000000	53.405727 
333.500000	53.983227 
334.000000	54.694696 
334.500000	55.407553 
335.000000	56.049310 
335.500000	56.723265 
336.000000	57.430962 
336.500000	58.127075 
337.000000	58.698931 
337.500000	59.262454 
338.000000	59.934007 
338.500000	60.718325 
339.000000	61.416856 
339.500000	62.011553 
340.000000	62.600340 
340.500000	63.267416 
341.000000	63.960689 
341.500000	64.576166 
342.000000	65.091712 
342.500000	65.659136 
343.000000	66.352962 
343.500000	67.091749 
344.000000	67.769022 
344.500000	68.376643 
345.000000	69.079416 
345.500000	69.925507 
346.000000	70.802030 
346.500000	71.606348 
347.000000	72.326143 
347.500000	73.031121 
348.000000	73.732409 
348.500000	74.492136 
349.000000	75.292946 
349.500000	76.120015 
350.000000	76.898393 
350.500000	77.560575 
351.000000	78.173083 
351.500000	78.774924 
352.000000	79.445363 
352.500000	80.169613 
353.000000	81.092401 
353.500000	82.073757 
354.000000	82.958924 
354.500000	83.634439 
355.000000	84.240507 
355.500000	84.874318 
356.000000	85.497348 
356.500000	86.130090 
357.000000	86.915325 
357.500000	87.807727 
358.000000	88.552174 
358.500000	89.190833 
359.000000	89.925462 
359.500000	90.718878 
360.000000	91.292000 
360.500000	91.566893 
361.000000	91.830083 
361.500000	92.302340 
362.000000	92.904022 
362.500000	93.365901 
363.000000	93.615196 
363.500000	93.697257 
364.000000	93.902878 
364.500000	94.335568 
365.000000	94.847280 
365.500000	95.177075 
366.000000	95.358371 
366.500000	95.654068 
367.000000	95.913265 
367.500000	96.033469 
368.000000	95.862037 
368.500000	95.775037 
369.000000	95.781878 
369.500000	96.089325 
370.000000	96.242984 
370.500000	96.151727 
371.000000	95.769833 
371.500000	95.500045 
372.000000	95.269106 
372.500000	95.121666 
373.000000	94.868590 
373.500000	94.571136 
374.000000	94.071946 
374.500000	93.520219 
375.000000	93.069984 
375.500000	92.637204 
376.000000	92.082090 
376.500000	91.491227 
377.000000	91.027954 
377.500000	90.494363 
378.000000	89.779916 
378.500000	89.067742 
379.000000	88.522469 
379.500000	88.083106 
380.000000	87.551553 
380.500000	86.973083 
381.000000	86.391401 
381.500000	85.711939 
382.000000	84.853977 
382.500000	83.914068 
383.000000	83.035060 
383.500000	82.275492 
384.000000	81.647954 
384.500000	81.129871 
385.000000	80.543537 
385.500000	79.914340 
386.000000	79.067280 
386.500000	78.084613 
387.000000	77.029522 
387.500000	76.186340 
388.000000	75.523924 
388.500000	74.828242 
389.000000	73.961886 
389.500000	73.077537 
390.000000	72.319106 
390.500000	71.658022 
391.000000	70.890424 
391.500000	70.027507 
392.000000	69.165840 
392.500000	68.416840 
393.000000	67.638121 
393.500000	66.829613 
394.000000	65.961007 
394.500000	65.105651 
395.000000	64.212568 
395.500000	63.254659 
396.000000	62.274356 
396.500000	61.280787 
397.000000	60.285113 
397.500000	59.286401 
398.000000	58.358424 
398.500000	57.495295 
399.000000	56.760712 
399.500000	56.126689 
400.000000	55.576999 

