PE FL                   SPECTRUM    ASCII       PEDS        1.60        
  -1
CDSRT#63.SP
02/03/22
04:32:43.00
02/03/22
04:34:36.00


400.000000
1









LS55
420.00
5.00
5.00
SCAN
1
20
100
100
0
100
0
0
0
1
7
ON
650 365 
1 0 0
#HDR
-1
-1
#GR
NM

0.00002384185791015625
0.0
230.000000
0.500000
341
8
41.495606
3.343303
#DATA
230.000000	3.872000  
230.500000	3.747734  
231.000000	3.731787  
231.500000	3.813507  
232.000000	3.925704  
232.500000	4.028856  
233.000000	4.101636  
233.500000	4.141409  
234.000000	4.162424  
234.500000	4.256507  
235.000000	4.419340  
235.500000	4.564416  
236.000000	4.576681  
236.500000	4.505939  
237.000000	4.379977  
237.500000	4.224090  
238.000000	4.022909  
238.500000	3.884393  
239.000000	3.810878  
239.500000	3.763689  
240.000000	3.685204  
240.500000	3.639416  
241.000000	3.628583  
241.500000	3.600196  
242.000000	3.531522  
242.500000	3.485681  
243.000000	3.502984  
243.500000	3.520977  
244.000000	3.537969  
244.500000	3.538765  
245.000000	3.528113  
245.500000	3.471772  
246.000000	3.390560  
246.500000	3.343303  
247.000000	3.350037  
247.500000	3.379613  
248.000000	3.415840  
248.500000	3.451598  
249.000000	3.477750  
249.500000	3.498712  
250.000000	3.570227  
250.500000	3.680007  
251.000000	3.806030  
251.500000	3.879916  
252.000000	3.932348  
252.500000	3.952507  
253.000000	3.984522  
253.500000	4.017818  
254.000000	4.060121  
254.500000	4.095659  
255.000000	4.130871  
255.500000	4.184803  
256.000000	4.226492  
256.500000	4.249348  
257.000000	4.245742  
257.500000	4.273704  
258.000000	4.312250  
258.500000	4.350765  
259.000000	4.362659  
259.500000	4.379287  
260.000000	4.411204  
260.500000	4.480628  
261.000000	4.516969  
261.500000	4.530598  
262.000000	4.555613  
262.500000	4.634765  
263.000000	4.749340  
263.500000	4.895810  
264.000000	5.042416  
264.500000	5.105757  
265.000000	5.122242  
265.500000	5.115401  
266.000000	5.189818  
266.500000	5.265962  
267.000000	5.341628  
267.500000	5.409946  
268.000000	5.482636  
268.500000	5.544174  
269.000000	5.567810  
269.500000	5.557469  
270.000000	5.503280  
270.500000	5.527666  
271.000000	5.596446  
271.500000	5.650931  
272.000000	5.612931  
272.500000	5.592863  
273.000000	5.598621  
273.500000	5.627522  
274.000000	5.638901  
274.500000	5.672795  
275.000000	5.711954  
275.500000	5.740681  
276.000000	5.727545  
276.500000	5.696704  
277.000000	5.675643  
277.500000	5.704249  
278.000000	5.735954  
278.500000	5.707272  
279.000000	5.607318  
279.500000	5.571833  
280.000000	5.601295  
280.500000	5.630568  
281.000000	5.598484  
281.500000	5.553871  
282.000000	5.551159  
282.500000	5.560113  
283.000000	5.545712  
283.500000	5.487257  
284.000000	5.436984  
284.500000	5.405613  
285.000000	5.403568  
285.500000	5.369818  
286.000000	5.303393  
286.500000	5.218446  
287.000000	5.142924  
287.500000	5.103901  
288.000000	5.081257  
288.500000	5.013863  
289.000000	4.904121  
289.500000	4.800325  
290.000000	4.770522  
290.500000	4.767196  
291.000000	4.744356  
291.500000	4.699962  
292.000000	4.698227  
292.500000	4.700878  
293.000000	4.713916  
293.500000	4.748704  
294.000000	4.852174  
294.500000	5.008674  
295.000000	5.170045  
295.500000	5.316151  
296.000000	5.486507  
296.500000	5.701492  
297.000000	5.998424  
297.500000	6.376287  
298.000000	6.849621  
298.500000	7.361098  
299.000000	7.908212  
299.500000	8.509439  
300.000000	9.186681  
300.500000	9.862909  
301.000000	10.480666 
301.500000	11.053424 
302.000000	11.588833 
302.500000	12.089431 
303.000000	12.504765 
303.500000	12.864825 
304.000000	13.237469 
304.500000	13.659500 
305.000000	14.087704 
305.500000	14.400053 
306.000000	14.643265 
306.500000	14.830477 
307.000000	15.028310 
307.500000	15.191825 
308.000000	15.381409 
308.500000	15.563333 
309.000000	15.735378 
309.500000	15.821484 
310.000000	15.903340 
310.500000	16.013409 
311.000000	16.145227 
311.500000	16.208446 
312.000000	16.229901 
312.500000	16.241439 
313.000000	16.342500 
313.500000	16.441522 
314.000000	16.521575 
314.500000	16.556712 
315.000000	16.661257 
315.500000	16.831204 
316.000000	17.075681 
316.500000	17.262272 
317.000000	17.382878 
317.500000	17.434939 
318.000000	17.555621 
318.500000	17.749037 
319.000000	18.008363 
319.500000	18.146984 
320.000000	18.173750 
320.500000	18.168340 
321.000000	18.343590 
321.500000	18.655037 
322.000000	18.930189 
322.500000	19.069931 
323.000000	19.151765 
323.500000	19.301060 
324.000000	19.525136 
324.500000	19.851340 
325.000000	20.162227 
325.500000	20.428689 
326.000000	20.547075 
326.500000	20.650795 
327.000000	20.831007 
327.500000	21.163113 
328.000000	21.532462 
328.500000	21.835727 
329.000000	22.051803 
329.500000	22.258893 
330.000000	22.561772 
330.500000	22.912666 
331.000000	23.256333 
331.500000	23.587462 
332.000000	23.966075 
332.500000	24.337500 
333.000000	24.624598 
333.500000	24.873075 
334.000000	25.173727 
334.500000	25.549121 
335.000000	25.880000 
335.500000	26.185575 
336.000000	26.560568 
336.500000	27.011871 
337.000000	27.465666 
337.500000	27.856515 
338.000000	28.184734 
338.500000	28.481689 
339.000000	28.748295 
339.500000	29.022515 
340.000000	29.308265 
340.500000	29.664030 
341.000000	30.011340 
341.500000	30.322477 
342.000000	30.550772 
342.500000	30.804113 
343.000000	31.168666 
343.500000	31.653431 
344.000000	32.121325 
344.500000	32.496431 
345.000000	32.852628 
345.500000	33.204780 
346.000000	33.514515 
346.500000	33.762287 
347.000000	34.070901 
347.500000	34.473280 
348.000000	34.915628 
348.500000	35.258181 
349.000000	35.551318 
349.500000	35.771886 
350.000000	36.081727 
350.500000	36.465939 
351.000000	36.832265 
351.500000	37.063893 
352.000000	37.298772 
352.500000	37.612742 
353.000000	37.941734 
353.500000	38.204060 
354.000000	38.453250 
354.500000	38.765575 
355.000000	39.028954 
355.500000	39.186931 
356.000000	39.360401 
356.500000	39.671280 
357.000000	40.051545 
357.500000	40.318810 
358.000000	40.411250 
358.500000	40.557416 
359.000000	40.799674 
359.500000	41.011212 
360.000000	41.054515 
360.500000	41.116151 
361.000000	41.221462 
361.500000	41.338227 
362.000000	41.351484 
362.500000	41.367833 
363.000000	41.441696 
363.500000	41.495606 
364.000000	41.487219 
364.500000	41.397606 
365.000000	41.313356 
365.500000	41.246757 
366.000000	41.262469 
366.500000	41.224840 
367.000000	41.118507 
367.500000	40.986553 
368.000000	40.938053 
368.500000	40.824371 
369.000000	40.637818 
369.500000	40.337000 
370.000000	40.135250 
370.500000	39.980939 
371.000000	39.890757 
371.500000	39.777871 
372.000000	39.715757 
372.500000	39.575590 
373.000000	39.283477 
373.500000	38.856318 
374.000000	38.440416 
374.500000	38.146492 
375.000000	37.833704 
375.500000	37.383863 
376.000000	36.875553 
376.500000	36.484022 
377.000000	36.243227 
377.500000	35.993659 
378.000000	35.648393 
378.500000	35.326863 
379.000000	35.017878 
379.500000	34.678795 
380.000000	34.268659 
380.500000	33.923189 
381.000000	33.660848 
381.500000	33.441310 
382.000000	33.128416 
382.500000	32.742393 
383.000000	32.303909 
383.500000	31.836984 
384.000000	31.421969 
384.500000	31.089378 
385.000000	30.828606 
385.500000	30.489583 
386.000000	30.064212 
386.500000	29.634454 
387.000000	29.340090 
387.500000	29.058204 
388.000000	28.670507 
388.500000	28.224954 
389.000000	27.856946 
389.500000	27.609196 
390.000000	27.399393 
390.500000	27.220325 
391.000000	27.001356 
391.500000	26.769212 
392.000000	26.478272 
392.500000	26.143318 
393.000000	25.765333 
393.500000	25.415378 
394.000000	25.123803 
394.500000	24.873871 
395.000000	24.610378 
395.500000	24.320825 
396.000000	24.033916 
396.500000	23.749204 
397.000000	23.486825 
397.500000	23.261378 
398.000000	23.072272 
398.500000	22.843924 
399.000000	22.576969 
399.500000	22.299727 
400.000000	22.044000 

