PE FL                   SPECTRUM    ASCII       PEDS        1.60        
  -1
CDSRT#62.SP
02/03/22
04:23:36.00
02/03/22
04:26:20.00


650.000000
1









LS55
365.00
5.00
5.00
SCAN
1
20
100
100
0
100
0
1
0
1
7
ON
540 280 
1 0 0
#HDR
-1
-1
#GR
NM

0.00002384185791015625
0.0
390.000000
0.500000
521
8
127.674318
6.513000
#DATA
390.000000	6.513000   
390.500000	6.818098   
391.000000	7.145219   
391.500000	7.501666   
392.000000	7.849393   
392.500000	8.149515   
393.000000	8.401613   
393.500000	8.678515   
394.000000	9.023757   
394.500000	9.402113   
395.000000	9.800204   
395.500000	10.151484  
396.000000	10.492356  
396.500000	10.824477  
397.000000	11.185378  
397.500000	11.572356  
398.000000	11.982106  
398.500000	12.405257  
399.000000	12.857234  
399.500000	13.319727  
400.000000	13.769651  
400.500000	14.202636  
401.000000	14.665931  
401.500000	15.207537  
402.000000	15.802628  
402.500000	16.342575  
403.000000	16.808590  
403.500000	17.262909  
404.000000	17.785712  
404.500000	18.381500  
405.000000	19.032621  
405.500000	19.682750  
406.000000	20.222757  
406.500000	20.670234  
407.000000	21.204916  
407.500000	21.944568  
408.000000	22.676348  
408.500000	23.198204  
409.000000	23.557674  
409.500000	24.052553  
410.000000	24.719757  
410.500000	25.530606  
411.000000	26.262196  
411.500000	26.915431  
412.000000	27.519166  
412.500000	28.148719  
413.000000	28.822977  
413.500000	29.556992  
414.000000	30.326568  
414.500000	31.070840  
415.000000	31.910871  
415.500000	32.736666  
416.000000	33.602606  
416.500000	34.334992  
417.000000	35.103977  
417.500000	35.941893  
418.000000	36.828189  
418.500000	37.613772  
419.000000	38.399303  
419.500000	39.200772  
420.000000	40.057863  
420.500000	40.996136  
421.000000	41.958992  
421.500000	42.870689  
422.000000	43.762613  
422.500000	44.641537  
423.000000	45.552340  
423.500000	46.392583  
424.000000	47.326401  
424.500000	48.286068  
425.000000	49.282219  
425.500000	50.136863  
426.000000	51.013068  
426.500000	51.922901  
427.000000	52.892454  
427.500000	53.784234  
428.000000	54.618893  
428.500000	55.540954  
429.000000	56.531037  
429.500000	57.607462  
430.000000	58.541818  
430.500000	59.410280  
431.000000	60.233621  
431.500000	61.199318  
432.000000	62.154780  
432.500000	63.088886  
433.000000	63.932143  
433.500000	64.814825  
434.000000	65.736386  
434.500000	66.637007  
435.000000	67.409371  
435.500000	68.072378  
436.000000	68.766977  
436.500000	69.578696  
437.000000	70.498454  
437.500000	71.275492  
438.000000	72.034272  
438.500000	72.959310  
439.000000	74.051060  
439.500000	75.024507  
440.000000	75.758537  
440.500000	76.332166  
441.000000	76.925583  
441.500000	77.704962  
442.000000	78.563272  
442.500000	79.446568  
443.000000	80.187492  
443.500000	80.853416  
444.000000	81.416507  
444.500000	82.072924  
445.000000	82.839151  
445.500000	83.660037  
446.000000	84.316780  
446.500000	84.842598  
447.000000	85.290318  
447.500000	85.741575  
448.000000	86.236015  
448.500000	86.841613  
449.000000	87.471090  
449.500000	88.046166  
450.000000	88.606113  
450.500000	89.258878  
451.000000	89.767363  
451.500000	90.146121  
452.000000	90.487477  
452.500000	91.035265  
453.000000	91.585401  
453.500000	92.066272  
454.000000	92.336159  
454.500000	92.549363  
455.000000	92.707007  
455.500000	93.006659  
456.000000	93.409393  
456.500000	93.884507  
457.000000	94.304780  
457.500000	94.790356  
458.000000	95.333409  
458.500000	95.844477  
459.000000	96.303750  
459.500000	96.789507  
460.000000	97.277287  
460.500000	97.637015  
461.000000	97.968878  
461.500000	98.396196  
462.000000	98.908969  
462.500000	99.205424  
463.000000	99.235159  
463.500000	99.341007  
464.000000	99.809856  
464.500000	100.490439 
465.000000	101.039787 
465.500000	101.369015 
466.000000	101.524977 
466.500000	101.666765 
467.000000	101.919151 
467.500000	102.517757 
468.000000	103.305856 
468.500000	103.970053 
469.000000	104.261977 
469.500000	104.344704 
470.000000	104.461204 
470.500000	104.910477 
471.000000	105.599090 
471.500000	106.246196 
472.000000	106.597492 
472.500000	106.831795 
473.000000	107.274166 
473.500000	107.867492 
474.000000	108.362090 
474.500000	108.685424 
475.000000	109.016704 
475.500000	109.402280 
476.000000	109.828977 
476.500000	110.185196 
477.000000	110.546606 
477.500000	110.985113 
478.000000	111.496386 
478.500000	111.981757 
479.000000	112.269537 
479.500000	112.451848 
480.000000	112.824825 
480.500000	113.482666 
481.000000	114.195750 
481.500000	114.677106 
482.000000	114.893727 
482.500000	115.112310 
483.000000	115.598136 
483.500000	116.299780 
484.000000	116.949015 
484.500000	117.294924 
485.000000	117.462121 
485.500000	117.754446 
486.000000	118.254515 
486.500000	118.666628 
487.000000	118.890643 
487.500000	119.221553 
488.000000	119.884893 
488.500000	120.578787 
489.000000	120.983863 
489.500000	121.233303 
490.000000	121.601060 
490.500000	122.068378 
491.000000	122.429545 
491.500000	122.739545 
492.000000	123.112484 
492.500000	123.409962 
493.000000	123.523000 
493.500000	123.539666 
494.000000	123.800666 
494.500000	124.269250 
495.000000	124.648795 
495.500000	124.685833 
496.000000	124.656507 
496.500000	124.656734 
497.000000	124.683621 
497.500000	124.684674 
498.000000	124.732901 
498.500000	124.963772 
499.000000	125.266916 
499.500000	125.573053 
500.000000	125.629128 
500.500000	125.544969 
501.000000	125.250477 
501.500000	125.089356 
502.000000	125.151166 
502.500000	125.456204 
503.000000	125.672060 
503.500000	125.890189 
504.000000	126.244325 
504.500000	126.631659 
505.000000	126.757204 
505.500000	126.638545 
506.000000	126.746818 
506.500000	127.018378 
507.000000	127.146590 
507.500000	126.980780 
508.000000	126.941727 
508.500000	127.100840 
509.000000	127.403151 
509.500000	127.521818 
510.000000	127.474803 
510.500000	127.265166 
511.000000	127.015484 
511.500000	126.903439 
512.000000	127.113159 
512.500000	127.523969 
513.000000	127.674318 
513.500000	127.420924 
514.000000	127.172856 
514.500000	127.212424 
515.000000	127.319856 
515.500000	127.204598 
516.000000	126.993424 
516.500000	126.849234 
517.000000	126.823871 
517.500000	126.701674 
518.000000	126.619507 
518.500000	126.583916 
519.000000	126.588916 
519.500000	126.453492 
520.000000	126.389340 
520.500000	126.305727 
521.000000	126.312022 
521.500000	126.141507 
522.000000	125.903515 
522.500000	125.637507 
523.000000	125.620386 
523.500000	125.699159 
524.000000	125.711659 
524.500000	125.406424 
525.000000	124.926386 
525.500000	124.712174 
526.000000	124.788992 
526.500000	124.902757 
527.000000	124.662803 
527.500000	124.251386 
528.000000	123.904045 
528.500000	123.747128 
529.000000	123.650295 
529.500000	123.683939 
530.000000	123.834098 
530.500000	123.792795 
531.000000	123.327856 
531.500000	122.615810 
532.000000	122.017954 
532.500000	121.817015 
533.000000	121.764083 
533.500000	121.651015 
534.000000	121.368227 
534.500000	121.162212 
535.000000	121.028681 
535.500000	120.865712 
536.000000	120.525901 
536.500000	120.132810 
537.000000	119.803098 
537.500000	119.606469 
538.000000	119.534901 
538.500000	119.438583 
539.000000	119.056674 
539.500000	118.479371 
540.000000	118.040848 
540.500000	117.837780 
541.000000	117.780863 
541.500000	117.625484 
542.000000	117.325363 
542.500000	116.836606 
543.000000	116.386378 
543.500000	116.136696 
544.000000	116.005590 
544.500000	115.747090 
545.000000	115.269878 
545.500000	114.812886 
546.000000	114.536734 
546.500000	114.368750 
547.000000	114.126227 
547.500000	113.637560 
548.000000	113.130909 
548.500000	112.733469 
549.000000	112.584901 
549.500000	112.328977 
550.000000	112.006712 
550.500000	111.614128 
551.000000	111.313924 
551.500000	110.994606 
552.000000	110.775924 
552.500000	110.607606 
553.000000	110.380174 
553.500000	109.968204 
554.000000	109.531909 
554.500000	109.192121 
555.000000	108.888454 
555.500000	108.510401 
556.000000	108.062401 
556.500000	107.487212 
557.000000	107.024727 
557.500000	106.748401 
558.000000	106.777143 
558.500000	106.669583 
559.000000	106.306901 
559.500000	105.719613 
560.000000	105.305128 
560.500000	105.045424 
561.000000	104.762393 
561.500000	104.416560 
562.000000	104.000446 
562.500000	103.682053 
563.000000	103.377477 
563.500000	103.091045 
564.000000	102.666992 
564.500000	102.077659 
565.000000	101.448053 
565.500000	101.029136 
566.000000	100.894636 
566.500000	100.681780 
567.000000	100.324909 
567.500000	99.789007  
568.000000	99.369931  
568.500000	99.031765  
569.000000	98.770886  
569.500000	98.408780  
570.000000	98.008477  
570.500000	97.614037  
571.000000	97.383598  
571.500000	97.213500  
572.000000	96.947499  
572.500000	96.450681  
573.000000	95.909000  
573.500000	95.460795  
574.000000	95.166507  
574.500000	94.818696  
575.000000	94.414999  
575.500000	93.927946  
576.000000	93.445909  
576.500000	93.006257  
577.000000	92.592000  
577.500000	92.142143  
578.000000	91.717803  
578.500000	91.422037  
579.000000	91.239393  
579.500000	90.994613  
580.000000	90.589621  
580.500000	90.127204  
581.000000	89.802484  
581.500000	89.557053  
582.000000	89.323590  
582.500000	88.938000  
583.000000	88.434560  
583.500000	87.874553  
584.000000	87.419530  
584.500000	87.032462  
585.000000	86.803522  
585.500000	86.565106  
586.000000	86.300757  
586.500000	85.940318  
587.000000	85.528537  
587.500000	85.071749  
588.000000	84.633196  
588.500000	84.280378  
589.000000	83.932136  
589.500000	83.584295  
590.000000	83.195462  
590.500000	82.894196  
591.000000	82.458803  
591.500000	81.948803  
592.000000	81.517287  
592.500000	81.313560  
593.000000	81.123106  
593.500000	80.795090  
594.000000	80.358189  
594.500000	79.891734  
595.000000	79.346424  
595.500000	78.755393  
596.000000	78.393878  
596.500000	78.144537  
597.000000	77.884340  
597.500000	77.401000  
598.000000	77.070553  
598.500000	76.742212  
599.000000	76.482045  
599.500000	75.953651  
600.000000	75.525075  
600.500000	75.119984  
601.000000	74.902265  
601.500000	74.657909  
602.000000	74.412977  
602.500000	74.143772  
603.000000	73.838196  
603.500000	73.379249  
604.000000	72.858893  
604.500000	72.330825  
605.000000	71.925053  
605.500000	71.464462  
606.000000	71.037265  
606.500000	70.662780  
607.000000	70.433757  
607.500000	70.066704  
608.000000	69.650507  
608.500000	69.277454  
609.000000	69.008916  
609.500000	68.736969  
610.000000	68.363999  
610.500000	67.945931  
611.000000	67.546772  
611.500000	67.195242  
612.000000	66.830810  
612.500000	66.471174  
613.000000	65.996840  
613.500000	65.440659  
614.000000	64.908030  
614.500000	64.586371  
615.000000	64.451303  
615.500000	64.268886  
616.000000	63.903219  
616.500000	63.400606  
617.000000	63.036280  
617.500000	62.686174  
618.000000	62.331856  
618.500000	61.883621  
619.000000	61.479250  
619.500000	61.127409  
620.000000	60.854333  
620.500000	60.586833  
621.000000	60.187977  
621.500000	59.708946  
622.000000	59.190159  
622.500000	58.842196  
623.000000	58.424136  
623.500000	58.007969  
624.000000	57.575431  
624.500000	57.259386  
625.000000	56.920113  
625.500000	56.538893  
626.000000	56.054098  
626.500000	55.513515  
627.000000	55.016643  
627.500000	54.648643  
628.000000	54.401803  
628.500000	54.070409  
629.000000	53.610295  
629.500000	53.075719  
630.000000	52.553537  
630.500000	52.166454  
631.000000	51.892000  
631.500000	51.593090  
632.000000	51.266234  
632.500000	50.883962  
633.000000	50.537598  
633.500000	50.082356  
634.000000	49.680545  
634.500000	49.256636  
635.000000	48.938522  
635.500000	48.491909  
636.000000	48.144287  
636.500000	47.826083  
637.000000	47.478674  
637.500000	46.942643  
638.000000	46.346878  
638.500000	45.900946  
639.000000	45.611303  
639.500000	45.428363  
640.000000	45.255159  
640.500000	45.021969  
641.000000	44.565386  
641.500000	44.055090  
642.000000	43.713590  
642.500000	43.552386  
643.000000	43.356507  
643.500000	42.955825  
644.000000	42.481825  
644.500000	41.980250  
645.000000	41.592431  
645.500000	41.303053  
646.000000	41.112545  
646.500000	40.814719  
647.000000	40.465636  
647.500000	40.094560  
648.000000	39.729719  
648.500000	39.303863  
649.000000	38.905984  
649.500000	38.733356  
650.000000	38.798000  

