PE FL                   SPECTRUM    ASCII       PEDS        1.60        
  -1
CDSRT#65.SP
02/03/22
04:49:22.00
02/03/22
04:51:29.00


458.500000
1









LS55
490.00
5.00
5.00
SCAN
1
20
100
100
0
100
0
0
0
1
7
ON
450 400 
1 0 0
#HDR
-1
-1
#GR
NM

0.00002384185791015625
0.0
270.000000
0.500000
378
8
143.478386
8.589803
#DATA
270.000000	9.100999   
270.500000	9.360946   
271.000000	9.470674   
271.500000	9.483446   
272.000000	9.481363   
272.500000	9.500409   
273.000000	9.467606   
273.500000	9.456575   
274.000000	9.451984   
274.500000	9.514287   
275.000000	9.557310   
275.500000	9.593742   
276.000000	9.567810   
276.500000	9.533037   
277.000000	9.448219   
277.500000	9.338810   
278.000000	9.227053   
278.500000	9.162424   
279.000000	9.145924   
279.500000	9.123250   
280.000000	9.092113   
280.500000	9.041287   
281.000000	8.996348   
281.500000	8.957742   
282.000000	8.943477   
282.500000	8.934727   
283.000000	8.903378   
283.500000	8.881810   
284.000000	8.842098   
284.500000	8.836689   
285.000000	8.793560   
285.500000	8.728833   
286.000000	8.639462   
286.500000	8.601886   
287.000000	8.589803   
287.500000	8.612257   
288.000000	8.647621   
288.500000	8.692257   
289.000000	8.727893   
289.500000	8.737515   
290.000000	8.752515   
290.500000	8.817242   
291.000000	8.942431   
291.500000	9.101712   
292.000000	9.294446   
292.500000	9.518666   
293.000000	9.795227   
293.500000	10.130825  
294.000000	10.545931  
294.500000	11.102848  
295.000000	11.836136  
295.500000	12.767219  
296.000000	13.745053  
296.500000	14.802416  
297.000000	16.014227  
297.500000	17.629053  
298.000000	19.579181  
298.500000	21.721227  
299.000000	23.914416  
299.500000	26.328719  
300.000000	28.968856  
300.500000	31.663992  
301.000000	34.128848  
301.500000	36.407196  
302.000000	38.666030  
302.500000	41.003946  
303.000000	43.134515  
303.500000	44.902393  
304.000000	46.359621  
304.500000	47.826318  
305.000000	49.339901  
305.500000	50.774416  
306.000000	52.057946  
306.500000	53.180249  
307.000000	54.073242  
307.500000	54.726477  
308.000000	55.357848  
308.500000	56.114689  
309.000000	56.905780  
309.500000	57.583303  
310.000000	58.192492  
310.500000	58.787462  
311.000000	59.205166  
311.500000	59.514121  
312.000000	59.944878  
312.500000	60.591348  
313.000000	61.179575  
313.500000	61.602863  
314.000000	61.995265  
314.500000	62.502363  
315.000000	63.063568  
315.500000	63.598393  
316.000000	64.093022  
316.500000	64.456348  
317.000000	64.783174  
317.500000	65.197643  
318.000000	65.736893  
318.500000	66.194060  
319.000000	66.589189  
319.500000	67.036840  
320.000000	67.619143  
320.500000	68.219287  
321.000000	68.723553  
321.500000	69.142636  
322.000000	69.471310  
322.500000	69.761295  
323.000000	70.005272  
323.500000	70.410310  
324.000000	70.937628  
324.500000	71.470212  
325.000000	71.714553  
325.500000	71.936303  
326.000000	72.353249  
326.500000	73.048022  
327.000000	73.729651  
327.500000	74.247840  
328.000000	74.746053  
328.500000	75.431780  
329.000000	76.257606  
329.500000	77.007962  
330.000000	77.639871  
330.500000	78.211098  
331.000000	78.749628  
331.500000	79.242068  
332.000000	79.837628  
332.500000	80.534333  
333.000000	81.338068  
333.500000	82.047856  
334.000000	82.892780  
334.500000	83.747356  
335.000000	84.734924  
335.500000	85.654022  
336.000000	86.609833  
336.500000	87.396227  
337.000000	88.009765  
337.500000	88.551287  
338.000000	89.286787  
338.500000	90.270772  
339.000000	91.227772  
339.500000	92.095265  
340.000000	92.951204  
340.500000	93.929818  
341.000000	94.814310  
341.500000	95.561462  
342.000000	96.283249  
342.500000	97.118287  
343.000000	97.953356  
343.500000	98.817530  
344.000000	99.754560  
344.500000	100.682250 
345.000000	101.501840 
345.500000	102.286500 
346.000000	103.198143 
346.500000	104.230825 
347.000000	105.213628 
347.500000	106.200363 
348.000000	107.188643 
348.500000	108.217424 
349.000000	109.295606 
349.500000	110.465962 
350.000000	111.462583 
350.500000	112.068128 
351.000000	112.638143 
351.500000	113.667045 
352.000000	115.061931 
352.500000	116.181969 
353.000000	117.047318 
353.500000	117.806037 
354.000000	118.618257 
354.500000	119.411424 
355.000000	120.489007 
355.500000	121.888962 
356.000000	123.429242 
356.500000	124.716522 
357.000000	125.894818 
357.500000	126.959704 
358.000000	128.032818 
358.500000	129.164522 
359.000000	130.455000 
359.500000	131.646500 
360.000000	132.688219 
360.500000	133.576530 
361.000000	134.590189 
361.500000	135.628787 
362.000000	136.658651 
362.500000	137.507151 
363.000000	138.354280 
363.500000	139.161045 
364.000000	139.895507 
364.500000	140.379257 
365.000000	140.800727 
365.500000	141.236886 
366.000000	141.612325 
366.500000	141.942674 
367.000000	142.273643 
367.500000	142.565015 
368.000000	142.713719 
368.500000	142.799045 
369.000000	143.055409 
369.500000	143.346787 
370.000000	143.478386 
370.500000	143.367196 
371.000000	143.065500 
371.500000	142.631469 
372.000000	142.270431 
372.500000	142.045136 
373.000000	141.895575 
373.500000	141.627803 
374.000000	141.308719 
374.500000	140.850613 
375.000000	140.236348 
375.500000	139.503340 
376.000000	138.955795 
376.500000	138.503121 
377.000000	137.978651 
377.500000	137.244969 
378.000000	136.477621 
378.500000	135.723636 
379.000000	134.862015 
379.500000	133.896401 
380.000000	132.839143 
380.500000	131.684916 
381.000000	130.514909 
381.500000	129.474113 
382.000000	128.597401 
382.500000	127.622469 
383.000000	126.361272 
383.500000	124.864780 
384.000000	123.559772 
384.500000	122.429401 
385.000000	121.518931 
385.500000	120.320083 
386.000000	118.908863 
386.500000	117.233931 
387.000000	115.629818 
387.500000	114.167772 
388.000000	112.879113 
388.500000	111.475674 
389.000000	109.854287 
389.500000	108.267507 
390.000000	106.861121 
390.500000	105.647727 
391.000000	104.326962 
391.500000	102.868143 
392.000000	101.281348 
392.500000	99.671507  
393.000000	98.015439  
393.500000	96.396590  
394.000000	94.785939  
394.500000	93.204545  
395.000000	91.675265  
395.500000	90.140545  
396.000000	88.521704  
396.500000	86.874803  
397.000000	85.454803  
397.500000	84.208863  
398.000000	82.951530  
398.500000	81.413772  
399.000000	79.755825  
399.500000	78.083030  
400.000000	76.560484  
400.500000	75.214083  
401.000000	73.938030  
401.500000	72.554750  
402.000000	71.121121  
402.500000	69.783446  
403.000000	68.614499  
403.500000	67.452628  
404.000000	66.152219  
404.500000	64.788606  
405.000000	63.509250  
405.500000	62.370128  
406.000000	61.324090  
406.500000	60.295075  
407.000000	59.291378  
407.500000	58.279500  
408.000000	57.202401  
408.500000	56.107212  
409.000000	55.109803  
409.500000	54.025045  
410.000000	52.810613  
410.500000	51.473727  
411.000000	50.344871  
411.500000	49.391606  
412.000000	48.533643  
412.500000	47.521454  
413.000000	46.511348  
413.500000	45.584083  
414.000000	44.881257  
414.500000	44.253636  
415.000000	43.575409  
415.500000	42.806189  
416.000000	42.100636  
416.500000	41.522348  
417.000000	41.009878  
417.500000	40.457772  
418.000000	39.860909  
418.500000	39.281219  
419.000000	38.746083  
419.500000	38.255727  
420.000000	37.823151  
420.500000	37.448477  
421.000000	37.097348  
421.500000	36.629325  
422.000000	36.108977  
422.500000	35.601681  
423.000000	35.252681  
423.500000	34.962325  
424.000000	34.721234  
424.500000	34.394515  
425.000000	34.051128  
425.500000	33.684772  
426.000000	33.415068  
426.500000	33.168666  
427.000000	32.866840  
427.500000	32.565181  
428.000000	32.272030  
428.500000	31.991439  
429.000000	31.666871  
429.500000	31.360727  
430.000000	31.075984  
430.500000	30.771537  
431.000000	30.422060  
431.500000	30.068106  
432.000000	29.754696  
432.500000	29.472530  
433.000000	29.229500  
433.500000	28.983757  
434.000000	28.773431  
434.500000	28.636727  
435.000000	28.528318  
435.500000	28.360750  
436.000000	28.090954  
436.500000	27.771265  
437.000000	27.539272  
437.500000	27.338689  
438.000000	27.145159  
438.500000	26.915946  
439.000000	26.691568  
439.500000	26.484143  
440.000000	26.305856  
440.500000	26.147462  
441.000000	25.981522  
441.500000	25.803234  
442.000000	25.552515  
442.500000	25.312462  
443.000000	25.160795  
443.500000	25.051643  
444.000000	24.891310  
444.500000	24.647000  
445.000000	24.454219  
445.500000	24.331833  
446.000000	24.239136  
446.500000	24.122174  
447.000000	24.060037  
447.500000	23.964833  
448.000000	23.794000  
448.500000	23.567007  
449.000000	23.407151  
449.500000	23.314969  
450.000000	23.269924  
450.500000	23.187000  
451.000000	23.091068  
451.500000	23.018015  
452.000000	22.993166  
452.500000	22.950287  
453.000000	22.873303  
453.500000	22.794462  
454.000000	22.768401  
454.500000	22.672454  
455.000000	22.483787  
455.500000	22.321901  
456.000000	22.287242  
456.500000	22.312340  
457.000000	22.301825  
457.500000	22.241090  
458.000000	22.145371  
458.500000	22.029000  

