PE FL                   SPECTRUM    ASCII       PEDS        1.60        
  -1
CDSRT#60.SP
02/03/22
04:07:08.00
02/03/22
04:09:55.00


600.000000
1









LS55
310.00
5.00
5.00
SCAN
1
20
100
100
0
100
0
1
0
1
7
ON
600 310 
1 0 0
#HDR
-1
-1
#GR
NM

0.00002384185791015625
0.0
340.000000
0.500000
521
8
52.650219
0.459000
#DATA
340.000000	0.459000  
340.500000	0.519166  
341.000000	0.561727  
341.500000	0.580545  
342.000000	0.582795  
342.500000	0.593340  
343.000000	0.607492  
343.500000	0.618681  
344.000000	0.616598  
344.500000	0.613704  
345.000000	0.613628  
345.500000	0.617363  
346.000000	0.624348  
346.500000	0.639128  
347.000000	0.653477  
347.500000	0.654636  
348.000000	0.659174  
348.500000	0.679446  
349.000000	0.701560  
349.500000	0.705151  
350.000000	0.693121  
350.500000	0.694409  
351.000000	0.714371  
351.500000	0.740719  
352.000000	0.757484  
352.500000	0.782280  
353.000000	0.802265  
353.500000	0.817719  
354.000000	0.816515  
354.500000	0.820249  
355.000000	0.828560  
355.500000	0.846749  
356.000000	0.858810  
356.500000	0.875840  
357.000000	0.893454  
357.500000	0.916515  
358.000000	0.938946  
358.500000	0.954295  
359.000000	0.957219  
359.500000	0.961484  
360.000000	0.980371  
360.500000	0.996295  
361.000000	1.000734  
361.500000	0.998143  
362.000000	1.014462  
362.500000	1.031462  
363.000000	1.054098  
363.500000	1.077575  
364.000000	1.106621  
364.500000	1.118121  
365.000000	1.116393  
365.500000	1.116484  
366.000000	1.133484  
366.500000	1.163196  
367.000000	1.192931  
367.500000	1.219166  
368.000000	1.236272  
368.500000	1.272333  
369.000000	1.319750  
369.500000	1.361393  
370.000000	1.385462  
370.500000	1.420931  
371.000000	1.468227  
371.500000	1.499787  
372.000000	1.521727  
372.500000	1.549015  
373.000000	1.601681  
373.500000	1.639295  
374.000000	1.691174  
374.500000	1.748507  
375.000000	1.831954  
375.500000	1.912409  
376.000000	1.985969  
376.500000	2.030136  
377.000000	2.049045  
377.500000	2.068522  
378.000000	2.122000  
378.500000	2.210825  
379.000000	2.309393  
379.500000	2.393212  
380.000000	2.465272  
380.500000	2.527234  
381.000000	2.597386  
381.500000	2.667856  
382.000000	2.739628  
382.500000	2.814530  
383.000000	2.895249  
383.500000	3.016037  
384.000000	3.151363  
384.500000	3.272734  
385.000000	3.348083  
385.500000	3.419636  
386.000000	3.515742  
386.500000	3.641833  
387.000000	3.765196  
387.500000	3.897507  
388.000000	4.019356  
388.500000	4.124484  
389.000000	4.198166  
389.500000	4.288015  
390.000000	4.369219  
390.500000	4.477696  
391.000000	4.599295  
391.500000	4.769719  
392.000000	4.925515  
392.500000	5.038575  
393.000000	5.141409  
393.500000	5.263143  
394.000000	5.390325  
394.500000	5.496340  
395.000000	5.606553  
395.500000	5.713704  
396.000000	5.848962  
396.500000	6.001045  
397.000000	6.180469  
397.500000	6.361863  
398.000000	6.522878  
398.500000	6.629128  
399.000000	6.709992  
399.500000	6.843174  
400.000000	7.075916  
400.500000	7.298613  
401.000000	7.401333  
401.500000	7.446227  
402.000000	7.569007  
402.500000	7.764840  
403.000000	7.950151  
403.500000	8.087477  
404.000000	8.262446  
404.500000	8.489742  
405.000000	8.709856  
405.500000	8.846750  
406.000000	8.944946  
406.500000	9.097196  
407.000000	9.307818  
407.500000	9.517022  
408.000000	9.662719  
408.500000	9.829560  
409.000000	10.042500 
409.500000	10.254128 
410.000000	10.422886 
410.500000	10.574348 
411.000000	10.762530 
411.500000	10.955045 
412.000000	11.164628 
412.500000	11.370204 
413.000000	11.595765 
413.500000	11.769750 
414.000000	11.914204 
414.500000	12.063924 
415.000000	12.323507 
415.500000	12.689583 
416.000000	13.053590 
416.500000	13.304598 
417.000000	13.502674 
417.500000	13.757037 
418.000000	14.097022 
418.500000	14.428719 
419.000000	14.662666 
419.500000	14.883666 
420.000000	15.145924 
420.500000	15.451719 
421.000000	15.688507 
421.500000	15.882689 
422.000000	16.102037 
422.500000	16.386386 
423.000000	16.637265 
423.500000	16.904363 
424.000000	17.221780 
424.500000	17.580045 
425.000000	17.889310 
425.500000	18.199325 
426.000000	18.561560 
426.500000	18.969719 
427.000000	19.275174 
427.500000	19.492810 
428.000000	19.696962 
428.500000	20.007257 
429.000000	20.387765 
429.500000	20.774522 
430.000000	21.066484 
430.500000	21.342272 
431.000000	21.585401 
431.500000	21.882075 
432.000000	22.226939 
432.500000	22.632113 
433.000000	23.000553 
433.500000	23.308318 
434.000000	23.532030 
434.500000	23.684931 
435.000000	23.859068 
435.500000	24.153098 
436.000000	24.579030 
436.500000	24.959219 
437.000000	25.206878 
437.500000	25.392106 
438.000000	25.635340 
438.500000	25.937810 
439.000000	26.243143 
439.500000	26.509909 
440.000000	26.726386 
440.500000	26.968757 
441.000000	27.271575 
441.500000	27.602977 
442.000000	27.949757 
442.500000	28.272522 
443.000000	28.600575 
443.500000	28.870704 
444.000000	29.131136 
444.500000	29.392962 
445.000000	29.612954 
445.500000	29.769204 
446.000000	29.922909 
446.500000	30.231749 
447.000000	30.602272 
447.500000	31.028833 
448.000000	31.332507 
448.500000	31.625727 
449.000000	31.841204 
449.500000	32.009810 
450.000000	32.132401 
450.500000	32.279545 
451.000000	32.428363 
451.500000	32.585348 
452.000000	32.714106 
452.500000	32.897780 
453.000000	33.128090 
453.500000	33.310969 
454.000000	33.410984 
454.500000	33.509674 
455.000000	33.712469 
455.500000	33.941318 
456.000000	34.207007 
456.500000	34.437318 
457.000000	34.696871 
457.500000	34.880530 
458.000000	35.039992 
458.500000	35.255219 
459.000000	35.534909 
459.500000	35.797060 
460.000000	35.960106 
460.500000	36.108113 
461.000000	36.314212 
461.500000	36.550492 
462.000000	36.765196 
462.500000	36.945287 
463.000000	37.064401 
463.500000	37.120734 
464.000000	37.176325 
464.500000	37.417537 
465.000000	37.813295 
465.500000	38.305250 
466.000000	38.620522 
466.500000	38.800583 
467.000000	38.844128 
467.500000	38.928621 
468.000000	39.069189 
468.500000	39.292666 
469.000000	39.529939 
469.500000	39.780840 
470.000000	40.038583 
470.500000	40.152462 
471.000000	40.191916 
471.500000	40.240030 
472.000000	40.501022 
472.500000	40.886196 
473.000000	41.269606 
473.500000	41.505424 
474.000000	41.751712 
474.500000	41.983772 
475.000000	42.182674 
475.500000	42.324757 
476.000000	42.526265 
476.500000	42.742424 
477.000000	42.898560 
477.500000	42.915939 
478.000000	43.066833 
478.500000	43.346727 
479.000000	43.772969 
479.500000	44.143871 
480.000000	44.484651 
480.500000	44.654909 
481.000000	44.835469 
481.500000	44.974765 
482.000000	45.149227 
482.500000	45.214083 
483.000000	45.382462 
483.500000	45.638113 
484.000000	45.916901 
484.500000	46.062462 
485.000000	46.202568 
485.500000	46.415727 
486.000000	46.589977 
486.500000	46.719909 
487.000000	46.859863 
487.500000	47.147590 
488.000000	47.392962 
488.500000	47.467795 
489.000000	47.490022 
489.500000	47.583992 
490.000000	47.810606 
490.500000	48.021075 
491.000000	48.276068 
491.500000	48.442174 
492.000000	48.581439 
492.500000	48.670583 
493.000000	48.806196 
493.500000	48.961643 
494.000000	49.109454 
494.500000	49.297174 
495.000000	49.442643 
495.500000	49.549916 
496.000000	49.606181 
496.500000	49.788984 
497.000000	49.973636 
497.500000	50.093257 
498.000000	50.046553 
498.500000	50.080030 
499.000000	50.247340 
499.500000	50.498939 
500.000000	50.591916 
500.500000	50.571333 
501.000000	50.592000 
501.500000	50.824901 
502.000000	51.138303 
502.500000	51.328651 
503.000000	51.377318 
503.500000	51.334765 
504.000000	51.344666 
504.500000	51.393128 
505.000000	51.528515 
505.500000	51.638053 
506.000000	51.741000 
506.500000	51.751856 
507.000000	51.794999 
507.500000	51.850765 
508.000000	51.864560 
508.500000	51.866174 
509.000000	51.950295 
509.500000	52.162484 
510.000000	52.293674 
510.500000	52.182848 
511.000000	52.034401 
511.500000	52.093098 
512.000000	52.343037 
512.500000	52.478931 
513.000000	52.482303 
513.500000	52.355750 
514.000000	52.380765 
514.500000	52.492242 
515.000000	52.650219 
515.500000	52.534015 
516.000000	52.233901 
516.500000	51.947742 
517.000000	51.893946 
517.500000	51.991295 
518.000000	52.077818 
518.500000	52.126893 
519.000000	52.192969 
519.500000	52.254636 
520.000000	52.286287 
520.500000	52.272818 
521.000000	52.337303 
521.500000	52.388265 
522.000000	52.388310 
522.500000	52.260462 
523.000000	52.281840 
523.500000	52.338946 
524.000000	52.345492 
524.500000	52.200916 
525.000000	52.032636 
525.500000	51.902462 
526.000000	51.838098 
526.500000	51.773689 
527.000000	51.732174 
527.500000	51.578765 
528.000000	51.441348 
528.500000	51.338462 
529.000000	51.465234 
529.500000	51.532257 
530.000000	51.544363 
530.500000	51.429053 
531.000000	51.455909 
531.500000	51.411318 
532.000000	51.254000 
532.500000	50.953719 
533.000000	50.777992 
533.500000	50.764378 
534.000000	50.819795 
534.500000	50.821780 
535.000000	50.700378 
535.500000	50.600303 
536.000000	50.490696 
536.500000	50.372553 
537.000000	50.196212 
537.500000	50.097030 
538.000000	49.948431 
538.500000	49.792674 
539.000000	49.651363 
539.500000	49.622954 
540.000000	49.533522 
540.500000	49.264484 
541.000000	49.050325 
541.500000	49.064340 
542.000000	49.132333 
542.500000	49.056469 
543.000000	48.847356 
543.500000	48.682621 
544.000000	48.611431 
544.500000	48.597893 
545.000000	48.451954 
545.500000	48.232303 
546.000000	48.011598 
546.500000	47.951469 
547.000000	47.947212 
547.500000	47.849181 
548.000000	47.611818 
548.500000	47.365424 
549.000000	47.262765 
549.500000	47.198863 
550.000000	47.151037 
550.500000	47.069174 
551.000000	46.988045 
551.500000	46.855545 
552.000000	46.728803 
552.500000	46.569045 
553.000000	46.381583 
553.500000	46.196136 
554.000000	46.073181 
554.500000	45.995166 
555.000000	45.959075 
555.500000	45.884477 
556.000000	45.790287 
556.500000	45.590371 
557.000000	45.402234 
557.500000	45.218136 
558.000000	45.087030 
558.500000	44.991560 
559.000000	44.942348 
559.500000	44.822666 
560.000000	44.575393 
560.500000	44.401863 
561.000000	44.278492 
561.500000	44.175893 
562.000000	43.937007 
562.500000	43.782212 
563.000000	43.745083 
563.500000	43.796234 
564.000000	43.700765 
564.500000	43.440643 
565.000000	43.197878 
565.500000	43.093174 
566.000000	43.067780 
566.500000	42.900159 
567.000000	42.608674 
567.500000	42.318318 
568.000000	42.160674 
568.500000	42.031310 
569.000000	41.912651 
569.500000	41.770659 
570.000000	41.659454 
570.500000	41.542651 
571.000000	41.479393 
571.500000	41.430068 
572.000000	41.385522 
572.500000	41.213560 
573.000000	41.041007 
573.500000	40.877174 
574.000000	40.749022 
574.500000	40.569265 
575.000000	40.386931 
575.500000	40.191030 
576.000000	39.998151 
576.500000	39.822409 
577.000000	39.759674 
577.500000	39.746090 
578.000000	39.631780 
578.500000	39.405287 
579.000000	39.248303 
579.500000	39.243810 
580.000000	39.189454 
580.500000	38.977712 
581.000000	38.743325 
581.500000	38.518174 
582.000000	38.347295 
582.500000	38.165833 
583.000000	38.109159 
583.500000	38.022007 
584.000000	37.831477 
584.500000	37.525871 
585.000000	37.405386 
585.500000	37.419901 
586.000000	37.426537 
586.500000	37.273553 
587.000000	37.051780 
587.500000	36.916598 
588.000000	36.802492 
588.500000	36.615030 
589.000000	36.410674 
589.500000	36.294689 
590.000000	36.196151 
590.500000	36.046924 
591.000000	35.860068 
591.500000	35.758500 
592.000000	35.633477 
592.500000	35.423962 
593.000000	35.210719 
593.500000	35.150583 
594.000000	35.120871 
594.500000	34.942272 
595.000000	34.604212 
595.500000	34.333795 
596.000000	34.209371 
596.500000	34.195825 
597.000000	34.204583 
597.500000	34.193060 
598.000000	34.071242 
598.500000	33.828984 
599.000000	33.516159 
599.500000	33.201734 
600.000000	32.893000 

