PE FL                   SPECTRUM    ASCII       PEDS        1.60        
  -1
CDSRT#61.SP
02/03/22
04:10:15.00
02/03/22
04:12:52.00


540.000000
1









LS55
280.00
5.00
5.00
SCAN
1
20
100
100
0
100
0
1
0
1
7
ON
600 310 
1 0 0
#HDR
-1
-1
#GR
NM

0.00002384185791015625
0.0
300.000000
0.500000
481
8
9.500613
0.323000
#DATA
300.000000	0.323000 
300.500000	0.460803 
301.000000	0.606075 
301.500000	0.762227 
302.000000	0.938893 
302.500000	1.126643 
303.000000	1.318166 
303.500000	1.512310 
304.000000	1.727810 
304.500000	1.957265 
305.000000	2.154916 
305.500000	2.297083 
306.000000	2.440401 
306.500000	2.613787 
307.000000	2.802924 
307.500000	2.970424 
308.000000	3.098772 
308.500000	3.214424 
309.000000	3.304000 
309.500000	3.373075 
310.000000	3.416613 
310.500000	3.467984 
311.000000	3.508128 
311.500000	3.541901 
312.000000	3.579257 
312.500000	3.639689 
313.000000	3.724371 
313.500000	3.752272 
314.000000	3.739515 
314.500000	3.711651 
315.000000	3.700174 
315.500000	3.679204 
316.000000	3.655833 
316.500000	3.605151 
317.000000	3.536931 
317.500000	3.494825 
318.000000	3.494310 
318.500000	3.513219 
319.000000	3.524553 
319.500000	3.523674 
320.000000	3.519500 
320.500000	3.476393 
321.000000	3.406606 
321.500000	3.340068 
322.000000	3.277568 
322.500000	3.229575 
323.000000	3.175560 
323.500000	3.113681 
324.000000	3.039409 
324.500000	3.010977 
325.000000	2.988810 
325.500000	2.964113 
326.000000	2.941454 
326.500000	2.951295 
327.000000	2.965287 
327.500000	2.900674 
328.000000	2.787969 
328.500000	2.680613 
329.000000	2.638590 
329.500000	2.606780 
330.000000	2.581515 
330.500000	2.546128 
331.000000	2.523386 
331.500000	2.496681 
332.000000	2.458522 
332.500000	2.432454 
333.000000	2.414393 
333.500000	2.389719 
334.000000	2.319022 
334.500000	2.231651 
335.000000	2.162265 
335.500000	2.152272 
336.000000	2.142719 
336.500000	2.105113 
337.000000	2.051916 
337.500000	2.024946 
338.000000	1.987393 
338.500000	1.913833 
339.000000	1.834083 
339.500000	1.811477 
340.000000	1.825401 
340.500000	1.837113 
341.000000	1.816560 
341.500000	1.787863 
342.000000	1.763530 
342.500000	1.738621 
343.000000	1.701651 
343.500000	1.649189 
344.000000	1.614030 
344.500000	1.585962 
345.000000	1.566969 
345.500000	1.544530 
346.000000	1.536113 
346.500000	1.510651 
347.000000	1.492795 
347.500000	1.481666 
348.000000	1.488000 
348.500000	1.479931 
349.000000	1.455083 
349.500000	1.431628 
350.000000	1.425083 
350.500000	1.426931 
351.000000	1.429356 
351.500000	1.432818 
352.000000	1.407424 
352.500000	1.362386 
353.000000	1.304462 
353.500000	1.273219 
354.000000	1.273787 
354.500000	1.287439 
355.000000	1.288454 
355.500000	1.269840 
356.000000	1.242984 
356.500000	1.222477 
357.000000	1.228636 
357.500000	1.244136 
358.000000	1.261507 
358.500000	1.255522 
359.000000	1.238704 
359.500000	1.214446 
360.000000	1.192439 
360.500000	1.181727 
361.000000	1.187878 
361.500000	1.188446 
362.000000	1.159613 
362.500000	1.123886 
363.000000	1.104689 
363.500000	1.126712 
364.000000	1.144401 
364.500000	1.140022 
365.000000	1.110787 
365.500000	1.099219 
366.000000	1.119909 
366.500000	1.165606 
367.000000	1.190484 
367.500000	1.168848 
368.000000	1.128416 
368.500000	1.100151 
369.000000	1.117333 
369.500000	1.161030 
370.000000	1.192984 
370.500000	1.182575 
371.000000	1.160712 
371.500000	1.146234 
372.000000	1.151719 
372.500000	1.150378 
373.000000	1.159424 
373.500000	1.175613 
374.000000	1.201530 
374.500000	1.210401 
375.000000	1.210840 
375.500000	1.213159 
376.000000	1.229681 
376.500000	1.247734 
377.000000	1.261348 
377.500000	1.293030 
378.000000	1.343772 
378.500000	1.386287 
379.000000	1.396818 
379.500000	1.395871 
380.000000	1.421090 
380.500000	1.459515 
381.000000	1.480984 
381.500000	1.486227 
382.000000	1.494643 
382.500000	1.518007 
383.000000	1.546803 
383.500000	1.592318 
384.000000	1.633280 
384.500000	1.663643 
385.000000	1.665318 
385.500000	1.666371 
386.000000	1.676742 
386.500000	1.712765 
387.000000	1.767272 
387.500000	1.842030 
388.000000	1.905227 
388.500000	1.939916 
389.000000	1.960174 
389.500000	1.987484 
390.000000	2.031537 
390.500000	2.084878 
391.000000	2.144871 
391.500000	2.183856 
392.000000	2.215924 
392.500000	2.232015 
393.000000	2.255068 
393.500000	2.272106 
394.000000	2.319068 
394.500000	2.394924 
395.000000	2.484053 
395.500000	2.532189 
396.000000	2.538787 
396.500000	2.542280 
397.000000	2.584750 
397.500000	2.639833 
398.000000	2.687765 
398.500000	2.735636 
399.000000	2.798795 
399.500000	2.888901 
400.000000	2.990469 
400.500000	3.063212 
401.000000	3.109242 
401.500000	3.099287 
402.000000	3.109772 
402.500000	3.156462 
403.000000	3.260704 
403.500000	3.347083 
404.000000	3.419469 
404.500000	3.434507 
405.000000	3.463356 
405.500000	3.507318 
406.000000	3.581901 
406.500000	3.650287 
407.000000	3.691477 
407.500000	3.725931 
408.000000	3.787803 
408.500000	3.879613 
409.000000	3.993553 
409.500000	4.117659 
410.000000	4.216840 
410.500000	4.280787 
411.000000	4.338280 
411.500000	4.404174 
412.000000	4.474303 
412.500000	4.502136 
413.000000	4.538689 
413.500000	4.607568 
414.000000	4.712242 
414.500000	4.781181 
415.000000	4.839803 
415.500000	4.865159 
416.000000	4.888075 
416.500000	4.949530 
417.000000	5.081219 
417.500000	5.218954 
418.000000	5.326522 
418.500000	5.430000 
419.000000	5.546825 
419.500000	5.636651 
420.000000	5.632689 
420.500000	5.633598 
421.000000	5.712886 
421.500000	5.859674 
422.000000	5.984378 
422.500000	6.074931 
423.000000	6.167931 
423.500000	6.250575 
424.000000	6.325560 
424.500000	6.358446 
425.000000	6.441674 
425.500000	6.550962 
426.000000	6.677484 
426.500000	6.737803 
427.000000	6.766166 
427.500000	6.810598 
428.000000	6.922856 
428.500000	7.053969 
429.000000	7.114181 
429.500000	7.118886 
430.000000	7.159977 
430.500000	7.276303 
431.000000	7.429583 
431.500000	7.526840 
432.000000	7.594856 
432.500000	7.657803 
433.000000	7.738613 
433.500000	7.746189 
434.000000	7.762704 
434.500000	7.794242 
435.000000	7.909886 
435.500000	8.031371 
436.000000	8.143765 
436.500000	8.180257 
437.000000	8.203712 
437.500000	8.244492 
438.000000	8.393787 
438.500000	8.540916 
439.000000	8.613507 
439.500000	8.600348 
440.000000	8.592477 
440.500000	8.621909 
441.000000	8.680295 
441.500000	8.722780 
442.000000	8.757727 
442.500000	8.794787 
443.000000	8.800128 
443.500000	8.805742 
444.000000	8.858272 
444.500000	8.981522 
445.000000	9.112303 
445.500000	9.141204 
446.000000	9.112871 
446.500000	9.083840 
447.000000	9.090840 
447.500000	9.058106 
448.000000	9.057810 
448.500000	9.118901 
449.000000	9.208499 
449.500000	9.237363 
450.000000	9.224287 
450.500000	9.181659 
451.000000	9.123621 
451.500000	9.047886 
452.000000	9.034204 
452.500000	9.100621 
453.000000	9.186909 
453.500000	9.185803 
454.000000	9.166643 
454.500000	9.155492 
455.000000	9.195181 
455.500000	9.200992 
456.000000	9.183068 
456.500000	9.166772 
457.000000	9.199181 
457.500000	9.231166 
458.000000	9.255946 
458.500000	9.266227 
459.000000	9.284151 
459.500000	9.323651 
460.000000	9.353007 
460.500000	9.294840 
461.000000	9.187462 
461.500000	9.124863 
462.000000	9.140962 
462.500000	9.159075 
463.000000	9.160469 
463.500000	9.175121 
464.000000	9.176666 
464.500000	9.130166 
465.000000	9.063166 
465.500000	9.015325 
466.000000	9.002280 
466.500000	9.016393 
467.000000	9.058522 
467.500000	9.062916 
468.000000	9.032734 
468.500000	8.976159 
469.000000	8.988727 
469.500000	9.011621 
470.000000	9.025060 
470.500000	8.986681 
471.000000	8.957856 
471.500000	8.960962 
472.000000	9.014068 
472.500000	9.047803 
473.000000	9.033689 
473.500000	8.993280 
474.000000	8.938772 
474.500000	8.932083 
475.000000	8.993787 
475.500000	9.115818 
476.000000	9.177318 
476.500000	9.168590 
477.000000	9.098613 
477.500000	9.048999 
478.000000	8.997901 
478.500000	8.988272 
479.000000	9.033212 
479.500000	9.085037 
480.000000	9.087242 
480.500000	9.077924 
481.000000	9.146583 
481.500000	9.278992 
482.000000	9.424212 
482.500000	9.500613 
483.000000	9.493893 
483.500000	9.423553 
484.000000	9.371303 
484.500000	9.340606 
485.000000	9.246053 
485.500000	9.091499 
486.000000	8.999227 
486.500000	9.033303 
487.000000	9.091333 
487.500000	9.053401 
488.000000	8.950401 
488.500000	8.883666 
489.000000	8.868590 
489.500000	8.853977 
490.000000	8.796075 
490.500000	8.737174 
491.000000	8.678174 
491.500000	8.635712 
492.000000	8.569742 
492.500000	8.524348 
493.000000	8.492651 
493.500000	8.479621 
494.000000	8.448143 
494.500000	8.420227 
495.000000	8.344598 
495.500000	8.247553 
496.000000	8.195090 
496.500000	8.215825 
497.000000	8.237871 
497.500000	8.151386 
498.000000	8.016545 
498.500000	7.919340 
499.000000	7.900500 
499.500000	7.862696 
500.000000	7.821795 
500.500000	7.802424 
501.000000	7.812393 
501.500000	7.789454 
502.000000	7.732250 
502.500000	7.680757 
503.000000	7.630613 
503.500000	7.568250 
504.000000	7.469939 
504.500000	7.419000 
505.000000	7.444227 
505.500000	7.510249 
506.000000	7.520227 
506.500000	7.459909 
507.000000	7.394303 
507.500000	7.394083 
508.000000	7.453121 
508.500000	7.475416 
509.000000	7.408045 
509.500000	7.246500 
510.000000	7.108272 
510.500000	7.090931 
511.000000	7.128113 
511.500000	7.128189 
512.000000	7.054083 
512.500000	7.027484 
513.000000	7.027977 
513.500000	7.022159 
514.000000	6.934053 
514.500000	6.869492 
515.000000	6.837295 
515.500000	6.823931 
516.000000	6.757174 
516.500000	6.715075 
517.000000	6.696446 
517.500000	6.716007 
518.000000	6.680856 
518.500000	6.607303 
519.000000	6.531136 
519.500000	6.485159 
520.000000	6.469257 
520.500000	6.474886 
521.000000	6.499098 
521.500000	6.502946 
522.000000	6.456909 
522.500000	6.348613 
523.000000	6.292015 
523.500000	6.310833 
524.000000	6.309075 
524.500000	6.273810 
525.000000	6.230871 
525.500000	6.234166 
526.000000	6.222083 
526.500000	6.236333 
527.000000	6.256469 
527.500000	6.284303 
528.000000	6.237022 
528.500000	6.213492 
529.000000	6.227825 
529.500000	6.239249 
530.000000	6.154651 
530.500000	6.038946 
531.000000	5.974886 
531.500000	5.986136 
532.000000	5.998651 
532.500000	5.954287 
533.000000	5.867833 
533.500000	5.825401 
534.000000	5.843098 
534.500000	5.897954 
535.000000	5.902037 
535.500000	5.850727 
536.000000	5.760590 
536.500000	5.703931 
537.000000	5.681424 
537.500000	5.677818 
538.000000	5.649083 
538.500000	5.596090 
539.000000	5.565575 
539.500000	5.602719 
540.000000	5.701000 

