PE FL                   SPECTRUM    ASCII       PEDS        1.60        
  -1
CDSRT#43.SP
02/03/22
03:16:10.00
02/03/22
03:18:55.00


600.000000
1









LS55
310.00
5.00
5.00
SCAN
1
20
100
100
0
100
0
1
0
1
7
ON
540 280 
1 0 0
#HDR
-1
-1
#GR
NM

0.00002384185791015625
0.0
340.000000
0.500000
521
8
86.509606
11.197946
#DATA
340.000000	26.422000 
340.500000	26.991878 
341.000000	27.295590 
341.500000	27.440674 
342.000000	27.492348 
342.500000	27.429727 
343.000000	27.205590 
343.500000	27.048651 
344.000000	27.031393 
344.500000	27.068560 
345.000000	27.040636 
345.500000	27.009712 
346.000000	27.079060 
346.500000	27.238886 
347.000000	27.311227 
347.500000	27.180484 
348.000000	27.007575 
348.500000	27.024500 
349.000000	27.200977 
349.500000	27.324515 
350.000000	27.299810 
350.500000	27.303371 
351.000000	27.392007 
351.500000	27.573598 
352.000000	27.741734 
352.500000	27.898553 
353.000000	28.038068 
353.500000	28.183924 
354.000000	28.287962 
354.500000	28.382606 
355.000000	28.469378 
355.500000	28.580136 
356.000000	28.675113 
356.500000	28.757106 
357.000000	28.803075 
357.500000	28.825522 
358.000000	28.780689 
358.500000	28.798939 
359.000000	28.892689 
359.500000	29.066136 
360.000000	29.207462 
360.500000	29.334007 
361.000000	29.409340 
361.500000	29.501151 
362.000000	29.614333 
362.500000	29.824681 
363.000000	29.965007 
363.500000	30.074969 
364.000000	30.167378 
364.500000	30.404886 
365.000000	30.647931 
365.500000	30.910939 
366.000000	31.120310 
366.500000	31.378265 
367.000000	31.666424 
367.500000	31.988053 
368.000000	32.283803 
368.500000	32.571522 
369.000000	32.907613 
369.500000	33.266227 
370.000000	33.570946 
370.500000	33.851795 
371.000000	34.235128 
371.500000	34.700696 
372.000000	35.172621 
372.500000	35.624515 
373.000000	36.158916 
373.500000	36.696643 
374.000000	37.187643 
374.500000	37.656484 
375.000000	38.212325 
375.500000	38.766053 
376.000000	39.312696 
376.500000	39.881537 
377.000000	40.452378 
377.500000	41.011045 
378.000000	41.526060 
378.500000	42.147568 
379.000000	42.752166 
379.500000	43.380196 
380.000000	44.029242 
380.500000	44.830090 
381.000000	45.562871 
381.500000	46.284265 
382.000000	46.991143 
382.500000	47.824401 
383.000000	48.615280 
383.500000	49.342333 
384.000000	50.008500 
384.500000	50.788022 
385.000000	51.665545 
385.500000	52.615825 
386.000000	53.536666 
386.500000	54.420742 
387.000000	55.250363 
387.500000	56.083598 
388.000000	56.862984 
388.500000	57.628750 
389.000000	58.427007 
389.500000	59.327522 
390.000000	60.270454 
390.500000	61.216106 
391.000000	62.111704 
391.500000	62.999522 
392.000000	63.868575 
392.500000	64.710750 
393.000000	65.506787 
393.500000	66.245515 
394.000000	66.970651 
394.500000	67.836371 
395.000000	68.796371 
395.500000	69.705446 
396.000000	70.478893 
396.500000	71.177924 
397.000000	71.820280 
397.500000	72.423621 
398.000000	73.061409 
398.500000	73.739674 
399.000000	74.398143 
399.500000	74.900393 
400.000000	75.405886 
400.500000	76.035098 
401.000000	76.834590 
401.500000	77.544303 
402.000000	78.105075 
402.500000	78.510295 
403.000000	78.974696 
403.500000	79.525386 
404.000000	80.099893 
404.500000	80.632257 
405.000000	81.152416 
405.500000	81.636325 
406.000000	81.949749 
406.500000	82.090386 
407.000000	82.280916 
407.500000	82.699295 
408.000000	83.117803 
408.500000	83.527106 
409.000000	83.923151 
409.500000	84.258325 
410.000000	84.355386 
410.500000	84.398681 
411.000000	84.724045 
411.500000	85.379795 
412.000000	85.924560 
412.500000	86.155446 
413.000000	86.047924 
413.500000	85.807856 
414.000000	85.616469 
414.500000	85.698053 
415.000000	86.027757 
415.500000	86.393265 
416.000000	86.471196 
416.500000	86.353840 
417.000000	86.343977 
417.500000	86.470318 
418.000000	86.509606 
418.500000	86.197939 
419.000000	85.840992 
419.500000	85.748924 
420.000000	85.808931 
420.500000	85.752984 
421.000000	85.477924 
421.500000	85.231674 
422.000000	85.048742 
422.500000	84.837856 
423.000000	84.478931 
423.500000	84.170196 
424.000000	83.825696 
424.500000	83.533128 
425.000000	83.156893 
425.500000	82.835515 
426.000000	82.496878 
426.500000	82.305530 
427.000000	82.126719 
427.500000	81.961401 
428.000000	81.544765 
428.500000	81.059174 
429.000000	80.484613 
429.500000	79.796393 
430.000000	78.987553 
430.500000	78.372060 
431.000000	77.903606 
431.500000	77.447462 
432.000000	76.980636 
432.500000	76.637431 
433.000000	76.244500 
433.500000	75.578886 
434.000000	74.770022 
434.500000	74.029265 
435.000000	73.465803 
435.500000	73.050166 
436.000000	72.827651 
436.500000	72.584977 
437.000000	72.200946 
437.500000	71.568712 
438.000000	70.743787 
438.500000	69.907386 
439.000000	69.383280 
439.500000	69.133553 
440.000000	68.775303 
440.500000	67.946613 
441.000000	67.022250 
441.500000	66.343348 
442.000000	65.853545 
442.500000	65.170886 
443.000000	64.318901 
443.500000	63.500598 
444.000000	62.943340 
444.500000	62.377242 
445.000000	61.691356 
445.500000	60.976848 
446.000000	60.387931 
446.500000	59.893659 
447.000000	59.369227 
447.500000	58.674143 
448.000000	57.879151 
448.500000	57.155121 
449.000000	56.568522 
449.500000	56.003371 
450.000000	55.339325 
450.500000	54.660734 
451.000000	54.022825 
451.500000	53.363121 
452.000000	52.701999 
452.500000	52.136227 
453.000000	51.620863 
453.500000	51.040151 
454.000000	50.370916 
454.500000	49.746250 
455.000000	49.169750 
455.500000	48.551363 
456.000000	47.881393 
456.500000	47.219393 
457.000000	46.588750 
457.500000	46.055272 
458.000000	45.580371 
458.500000	45.101856 
459.000000	44.594871 
459.500000	44.043507 
460.000000	43.512462 
460.500000	42.982712 
461.000000	42.380825 
461.500000	41.724833 
462.000000	41.157606 
462.500000	40.769136 
463.000000	40.478734 
463.500000	40.118500 
464.000000	39.598136 
464.500000	39.069712 
465.000000	38.610030 
465.500000	38.198000 
466.000000	37.725522 
466.500000	37.239696 
467.000000	36.840174 
467.500000	36.541590 
468.000000	36.253863 
468.500000	35.891742 
469.000000	35.418219 
469.500000	34.891727 
470.000000	34.415492 
470.500000	34.035113 
471.000000	33.687098 
471.500000	33.314227 
472.000000	32.924871 
472.500000	32.543098 
473.000000	32.155378 
473.500000	31.778537 
474.000000	31.442856 
474.500000	31.141227 
475.000000	30.847280 
475.500000	30.552272 
476.000000	30.299280 
476.500000	30.016287 
477.000000	29.697060 
477.500000	29.324121 
478.000000	29.027098 
478.500000	28.835174 
479.000000	28.682060 
479.500000	28.406219 
480.000000	28.043613 
480.500000	27.705977 
481.000000	27.505742 
481.500000	27.315901 
482.000000	27.071015 
482.500000	26.801106 
483.000000	26.581113 
483.500000	26.344053 
484.000000	26.123371 
484.500000	25.930583 
485.000000	25.742113 
485.500000	25.527901 
486.000000	25.324196 
486.500000	25.211613 
487.000000	25.076977 
487.500000	24.892598 
488.000000	24.601378 
488.500000	24.395818 
489.000000	24.253712 
489.500000	24.202878 
490.000000	24.037856 
490.500000	23.805734 
491.000000	23.556181 
491.500000	23.407272 
492.000000	23.241606 
492.500000	23.054598 
493.000000	22.910333 
493.500000	22.781909 
494.000000	22.663022 
494.500000	22.473712 
495.000000	22.327803 
495.500000	22.237439 
496.000000	22.236386 
496.500000	22.125363 
497.000000	21.912000 
497.500000	21.653939 
498.000000	21.509916 
498.500000	21.440939 
499.000000	21.322893 
499.500000	21.187272 
500.000000	21.081727 
500.500000	21.003075 
501.000000	20.907575 
501.500000	20.852840 
502.000000	20.827954 
502.500000	20.733037 
503.000000	20.523931 
503.500000	20.295749 
504.000000	20.183310 
504.500000	20.147037 
505.000000	20.123606 
505.500000	20.052606 
506.000000	19.956734 
506.500000	19.858628 
507.000000	19.772022 
507.500000	19.658696 
508.000000	19.524931 
508.500000	19.434590 
509.000000	19.357477 
509.500000	19.338409 
510.000000	19.287257 
510.500000	19.256113 
511.000000	19.132007 
511.500000	18.970128 
512.000000	18.769772 
512.500000	18.626621 
513.000000	18.506409 
513.500000	18.475886 
514.000000	18.477833 
514.500000	18.471204 
515.000000	18.421234 
515.500000	18.346204 
516.000000	18.222643 
516.500000	18.092257 
517.000000	17.995060 
517.500000	17.952924 
518.000000	17.863924 
518.500000	17.726166 
519.000000	17.588833 
519.500000	17.557250 
520.000000	17.610113 
520.500000	17.625515 
521.000000	17.497545 
521.500000	17.310166 
522.000000	17.216454 
522.500000	17.229303 
523.000000	17.242772 
523.500000	17.161106 
524.000000	17.064704 
524.500000	16.983280 
525.000000	16.959121 
525.500000	16.916878 
526.000000	16.827765 
526.500000	16.700734 
527.000000	16.594159 
527.500000	16.565242 
528.000000	16.552060 
528.500000	16.550318 
529.000000	16.505310 
529.500000	16.408969 
530.000000	16.292628 
530.500000	16.249780 
531.000000	16.273356 
531.500000	16.284636 
532.000000	16.232946 
532.500000	16.084545 
533.000000	15.930250 
533.500000	15.825666 
534.000000	15.784098 
534.500000	15.773098 
535.000000	15.729075 
535.500000	15.639068 
536.000000	15.541825 
536.500000	15.470537 
537.000000	15.434446 
537.500000	15.386416 
538.000000	15.329659 
538.500000	15.305901 
539.000000	15.343833 
539.500000	15.303621 
540.000000	15.198015 
540.500000	15.060954 
541.000000	14.969992 
541.500000	14.930613 
542.000000	14.961560 
542.500000	14.963166 
543.000000	14.904871 
543.500000	14.775401 
544.000000	14.706303 
544.500000	14.701075 
545.000000	14.694560 
545.500000	14.641780 
546.000000	14.564757 
546.500000	14.462795 
547.000000	14.364000 
547.500000	14.297848 
548.000000	14.269265 
548.500000	14.236454 
549.000000	14.160409 
549.500000	14.068583 
550.000000	14.051916 
550.500000	14.086840 
551.000000	14.133075 
551.500000	14.125704 
552.000000	14.066530 
552.500000	13.984621 
553.000000	13.888969 
553.500000	13.787681 
554.000000	13.690674 
554.500000	13.655795 
555.000000	13.661863 
555.500000	13.685992 
556.000000	13.678431 
556.500000	13.647454 
557.000000	13.580393 
557.500000	13.477500 
558.000000	13.372371 
558.500000	13.343863 
559.000000	13.385833 
559.500000	13.457590 
560.000000	13.469431 
560.500000	13.397560 
561.000000	13.285825 
561.500000	13.160984 
562.000000	13.031151 
562.500000	12.924666 
563.000000	12.927181 
563.500000	12.968893 
564.000000	12.978371 
564.500000	12.904068 
565.000000	12.872340 
565.500000	12.913143 
566.000000	12.925772 
566.500000	12.840750 
567.000000	12.678946 
567.500000	12.568742 
568.000000	12.573598 
568.500000	12.612568 
569.000000	12.570628 
569.500000	12.470659 
570.000000	12.410871 
570.500000	12.389310 
571.000000	12.346340 
571.500000	12.310696 
572.000000	12.324969 
572.500000	12.331992 
573.000000	12.235780 
573.500000	12.151469 
574.000000	12.122613 
574.500000	12.135742 
575.000000	12.095598 
575.500000	12.081818 
576.000000	12.080234 
576.500000	12.040219 
577.000000	11.953000 
577.500000	11.911590 
578.000000	11.911719 
578.500000	11.917424 
579.000000	11.879310 
579.500000	11.820939 
580.000000	11.761856 
580.500000	11.714030 
581.000000	11.711689 
581.500000	11.732037 
582.000000	11.776287 
582.500000	11.750151 
583.000000	11.669583 
583.500000	11.542166 
584.000000	11.523515 
584.500000	11.538280 
585.000000	11.543962 
585.500000	11.485007 
586.000000	11.465810 
586.500000	11.445856 
587.000000	11.420075 
587.500000	11.402636 
588.000000	11.425575 
588.500000	11.426810 
589.000000	11.358931 
589.500000	11.285484 
590.000000	11.269424 
590.500000	11.290272 
591.000000	11.280613 
591.500000	11.274931 
592.000000	11.254568 
592.500000	11.237333 
593.000000	11.211227 
593.500000	11.197946 
594.000000	11.216727 
594.500000	11.240507 
595.000000	11.249333 
595.500000	11.253113 
596.000000	11.271446 
596.500000	11.286984 
597.000000	11.324492 
597.500000	11.366772 
598.000000	11.447575 
598.500000	11.578075 
599.000000	11.768257 
599.500000	11.997848 
600.000000	12.248000 

