PE FL                   SPECTRUM    ASCII       PEDS        1.60        
  -1
CDSRT#38.SP
02/03/22
03:03:52.00
02/03/22
03:05:42.00


400.000000
1









LS55
420.00
5.00
5.00
SCAN
1
20
100
100
0
100
0
0
0
1
7
ON
420 400 
1 0 0
#HDR
-1
-1
#GR
NM

0.00002384185791015625
0.0
230.000000
0.500000
341
8
86.805363
4.386000
#DATA
230.000000	4.386000  
230.500000	4.706242  
231.000000	4.896863  
231.500000	4.980234  
232.000000	5.050719  
232.500000	5.106946  
233.000000	5.158446  
233.500000	5.198348  
234.000000	5.229492  
234.500000	5.242909  
235.000000	5.311924  
235.500000	5.442143  
236.000000	5.534962  
236.500000	5.478840  
237.000000	5.350075  
237.500000	5.265401  
238.000000	5.160371  
238.500000	5.016318  
239.000000	4.883704  
239.500000	4.880636  
240.000000	4.859939  
240.500000	4.777628  
241.000000	4.654431  
241.500000	4.660174  
242.000000	4.678378  
242.500000	4.643143  
243.000000	4.581666  
243.500000	4.601325  
244.000000	4.631810  
244.500000	4.591719  
245.000000	4.516583  
245.500000	4.465962  
246.000000	4.449075  
246.500000	4.473878  
247.000000	4.558310  
247.500000	4.689143  
248.000000	4.777795  
248.500000	4.801931  
249.000000	4.800916  
249.500000	4.819280  
250.000000	4.875083  
250.500000	4.960833  
251.000000	4.998909  
251.500000	5.018227  
252.000000	5.080204  
252.500000	5.189962  
253.000000	5.272022  
253.500000	5.349363  
254.000000	5.443636  
254.500000	5.520484  
255.000000	5.525053  
255.500000	5.529689  
256.000000	5.590401  
256.500000	5.643643  
257.000000	5.665159  
257.500000	5.663204  
258.000000	5.667113  
258.500000	5.649916  
259.000000	5.621568  
259.500000	5.608469  
260.000000	5.651568  
260.500000	5.733545  
261.000000	5.880818  
261.500000	6.043689  
262.000000	6.177492  
262.500000	6.254696  
263.000000	6.303704  
263.500000	6.315712  
264.000000	6.336492  
264.500000	6.362083  
265.000000	6.421242  
265.500000	6.519583  
266.000000	6.639303  
266.500000	6.725340  
267.000000	6.770818  
267.500000	6.775340  
268.000000	6.820030  
268.500000	6.875681  
269.000000	6.917507  
269.500000	6.945015  
270.000000	6.987712  
270.500000	7.019803  
271.000000	7.023787  
271.500000	7.045204  
272.000000	7.069371  
272.500000	7.121568  
273.000000	7.191886  
273.500000	7.322727  
274.000000	7.368250  
274.500000	7.309590  
275.000000	7.167022  
275.500000	7.072825  
276.000000	7.032643  
276.500000	7.066810  
277.000000	7.156742  
277.500000	7.245280  
278.000000	7.278553  
278.500000	7.237030  
279.000000	7.184272  
279.500000	7.100121  
280.000000	7.053659  
280.500000	7.064651  
281.000000	7.128431  
281.500000	7.128583  
282.000000	7.054916  
282.500000	6.911606  
283.000000	6.816598  
283.500000	6.832689  
284.000000	6.918681  
284.500000	6.931007  
285.000000	6.839462  
285.500000	6.720386  
286.000000	6.668734  
286.500000	6.662295  
287.000000	6.661280  
287.500000	6.669575  
288.000000	6.656462  
288.500000	6.608939  
289.000000	6.562810  
289.500000	6.565393  
290.000000	6.588568  
290.500000	6.608015  
291.000000	6.631037  
291.500000	6.690371  
292.000000	6.785848  
292.500000	6.869750  
293.000000	6.949537  
293.500000	7.067939  
294.000000	7.293659  
294.500000	7.601333  
295.000000	7.975575  
295.500000	8.380689  
296.000000	8.865068  
296.500000	9.488909  
297.000000	10.333272 
297.500000	11.562636 
298.000000	13.255181 
298.500000	15.324446 
299.000000	17.754515 
299.500000	20.815583 
300.000000	24.726174 
300.500000	29.278575 
301.000000	34.018053 
301.500000	38.886795 
302.000000	44.079371 
302.500000	49.654590 
303.000000	55.051977 
303.500000	60.068606 
304.000000	64.683469 
304.500000	69.251840 
305.000000	73.452712 
305.500000	76.985424 
306.000000	79.648553 
306.500000	81.837393 
307.000000	83.759189 
307.500000	85.337484 
308.000000	86.383840 
308.500000	86.805363 
309.000000	86.803295 
309.500000	86.468704 
310.000000	85.936189 
310.500000	85.144621 
311.000000	84.042553 
311.500000	82.594795 
312.000000	80.916325 
312.500000	79.192106 
313.000000	77.463151 
313.500000	75.756977 
314.000000	73.866242 
314.500000	71.890924 
315.000000	69.792613 
315.500000	67.810143 
316.000000	65.825742 
316.500000	63.882734 
317.000000	61.944924 
317.500000	60.190431 
318.000000	58.588681 
318.500000	57.161159 
319.000000	55.683598 
319.500000	54.126909 
320.000000	52.538242 
320.500000	51.192856 
321.000000	49.985507 
321.500000	48.929356 
322.000000	47.847462 
322.500000	46.968159 
323.000000	46.183878 
323.500000	45.509037 
324.000000	44.812113 
324.500000	44.170560 
325.000000	43.558583 
325.500000	42.999060 
326.000000	42.532719 
326.500000	42.152560 
327.000000	41.858227 
327.500000	41.655265 
328.000000	41.530053 
328.500000	41.406454 
329.000000	41.235439 
329.500000	41.165666 
330.000000	41.305303 
330.500000	41.548924 
331.000000	41.699977 
331.500000	41.788325 
332.000000	41.928356 
332.500000	42.056742 
333.000000	42.228575 
333.500000	42.485424 
334.000000	42.915977 
334.500000	43.368689 
335.000000	43.727946 
335.500000	43.953446 
336.000000	44.107333 
336.500000	44.299553 
337.000000	44.617212 
337.500000	45.024659 
338.000000	45.410704 
338.500000	45.680893 
339.000000	45.973090 
339.500000	46.303174 
340.000000	46.726757 
340.500000	47.067386 
341.000000	47.350969 
341.500000	47.598015 
342.000000	47.972022 
342.500000	48.389946 
343.000000	48.731977 
343.500000	48.950045 
344.000000	49.201446 
344.500000	49.556946 
345.000000	49.991151 
345.500000	50.329583 
346.000000	50.635431 
346.500000	50.991037 
347.000000	51.493643 
347.500000	51.927181 
348.000000	52.249924 
348.500000	52.443325 
349.000000	52.648787 
349.500000	52.859416 
350.000000	53.180666 
350.500000	53.526068 
351.000000	53.880590 
351.500000	54.130143 
352.000000	54.462628 
352.500000	54.890446 
353.000000	55.321916 
353.500000	55.557303 
354.000000	55.654325 
354.500000	55.717507 
355.000000	55.987068 
355.500000	56.385219 
356.000000	56.844871 
356.500000	57.073712 
357.000000	57.165143 
357.500000	57.116537 
358.000000	57.168734 
358.500000	57.234500 
359.000000	57.439931 
359.500000	57.728999 
360.000000	58.082257 
360.500000	58.294674 
361.000000	58.263356 
361.500000	58.176742 
362.000000	58.154469 
362.500000	58.236090 
363.000000	58.235318 
363.500000	58.248310 
364.000000	58.288159 
364.500000	58.318499 
365.000000	58.225393 
365.500000	58.027598 
366.000000	57.872325 
366.500000	57.694113 
367.000000	57.437643 
367.500000	57.086772 
368.000000	56.859121 
368.500000	56.720886 
369.000000	56.618606 
369.500000	56.462598 
370.000000	56.255068 
370.500000	55.922575 
371.000000	55.488613 
371.500000	55.115939 
372.000000	54.827765 
372.500000	54.434303 
373.000000	53.840484 
373.500000	53.210651 
374.000000	52.683401 
374.500000	52.226742 
375.000000	51.699030 
375.500000	51.052962 
376.000000	50.327621 
376.500000	49.590113 
377.000000	48.985151 
377.500000	48.428477 
378.000000	47.824727 
378.500000	47.157825 
379.000000	46.564689 
379.500000	46.033121 
380.000000	45.435863 
380.500000	44.780409 
381.000000	44.177583 
381.500000	43.671303 
382.000000	43.068977 
382.500000	42.351340 
383.000000	41.639219 
383.500000	41.016431 
384.000000	40.484689 
384.500000	39.950083 
385.000000	39.422848 
385.500000	38.830204 
386.000000	38.266545 
386.500000	37.730530 
387.000000	37.305946 
387.500000	36.881537 
388.000000	36.415719 
388.500000	35.817666 
389.000000	35.165469 
389.500000	34.578325 
390.000000	34.150083 
390.500000	33.855750 
391.000000	33.565113 
391.500000	33.181303 
392.000000	32.730545 
392.500000	32.323401 
393.000000	31.896560 
393.500000	31.447159 
394.000000	30.977621 
394.500000	30.606598 
395.000000	30.216340 
395.500000	29.735931 
396.000000	29.166719 
396.500000	28.664765 
397.000000	28.171507 
397.500000	27.685257 
398.000000	27.248674 
398.500000	26.918909 
399.000000	26.611378 
399.500000	26.205742 
400.000000	25.682000 

