PE FL                   SPECTRUM    ASCII       PEDS        1.60        
  -1
CDSRT#44.SP
02/03/22
03:19:20.00
02/03/22
03:21:35.00


600.000000
1









LS55
365.00
5.00
5.00
SCAN
1
20
100
100
0
100
0
1
0
1
7
ON
600 310 
1 0 0
#HDR
-1
-1
#GR
NM

0.00002384185791015625
0.0
390.000000
0.500000
421
8
64.051416
18.518083
#DATA
390.000000	23.692000 
390.500000	24.306431 
391.000000	24.912181 
391.500000	25.517553 
392.000000	26.073712 
392.500000	26.554681 
393.000000	26.959840 
393.500000	27.391651 
394.000000	27.790598 
394.500000	28.248431 
395.000000	28.739333 
395.500000	29.347060 
396.000000	29.920696 
396.500000	30.506060 
397.000000	31.062590 
397.500000	31.579833 
398.000000	32.101560 
398.500000	32.735651 
399.000000	33.463227 
399.500000	34.106469 
400.000000	34.619204 
400.500000	35.150992 
401.000000	35.767265 
401.500000	36.453522 
402.000000	37.112371 
402.500000	37.842924 
403.000000	38.557750 
403.500000	39.224371 
404.000000	39.824310 
404.500000	40.465121 
405.000000	41.204098 
405.500000	41.937272 
406.000000	42.632068 
406.500000	43.224015 
407.000000	43.919507 
407.500000	44.606356 
408.000000	45.316893 
408.500000	45.883295 
409.000000	46.483272 
409.500000	47.083287 
410.000000	47.723098 
410.500000	48.302515 
411.000000	48.917401 
411.500000	49.563659 
412.000000	50.198848 
412.500000	50.732863 
413.000000	51.139666 
413.500000	51.551545 
414.000000	51.990303 
414.500000	52.485363 
415.000000	53.054340 
415.500000	53.775954 
416.000000	54.526340 
416.500000	55.159227 
417.000000	55.536878 
417.500000	55.760151 
418.000000	55.990803 
418.500000	56.377628 
419.000000	56.966287 
419.500000	57.577484 
420.000000	58.040030 
420.500000	58.304939 
421.000000	58.563166 
421.500000	58.869166 
422.000000	59.225272 
422.500000	59.518954 
423.000000	59.793916 
423.500000	60.058901 
424.000000	60.311265 
424.500000	60.531628 
425.000000	60.733712 
425.500000	60.919537 
426.000000	61.111386 
426.500000	61.432757 
427.000000	61.860477 
427.500000	62.216977 
428.000000	62.367840 
428.500000	62.488174 
429.000000	62.626174 
429.500000	62.801681 
430.000000	62.922560 
430.500000	63.087886 
431.000000	63.303030 
431.500000	63.427454 
432.000000	63.570303 
432.500000	63.697053 
433.000000	63.842045 
433.500000	63.752833 
434.000000	63.651371 
434.500000	63.575280 
435.000000	63.655083 
435.500000	63.666257 
436.000000	63.629272 
436.500000	63.664818 
437.000000	63.852015 
437.500000	64.051416 
438.000000	63.987143 
438.500000	63.752984 
439.000000	63.465212 
439.500000	63.305818 
440.000000	63.120606 
440.500000	63.011825 
441.000000	62.965492 
441.500000	62.978734 
442.000000	62.779022 
442.500000	62.414310 
443.000000	62.073992 
443.500000	61.902727 
444.000000	61.830106 
444.500000	61.635446 
445.000000	61.411515 
445.500000	61.133916 
446.000000	60.887583 
446.500000	60.569310 
447.000000	60.294553 
447.500000	60.042825 
448.000000	59.839007 
448.500000	59.546916 
449.000000	59.351856 
449.500000	59.173931 
450.000000	58.918931 
450.500000	58.511121 
451.000000	58.173257 
451.500000	57.907643 
452.000000	57.679969 
452.500000	57.339916 
453.000000	57.007454 
453.500000	56.700651 
454.000000	56.504333 
454.500000	56.296621 
455.000000	56.091348 
455.500000	55.752401 
456.000000	55.367257 
456.500000	54.937856 
457.000000	54.643840 
457.500000	54.421621 
458.000000	54.218075 
458.500000	53.908954 
459.000000	53.596431 
459.500000	53.280803 
460.000000	52.996522 
460.500000	52.623712 
461.000000	52.265424 
461.500000	51.840704 
462.000000	51.487719 
462.500000	51.163166 
463.000000	51.007416 
463.500000	50.805462 
464.000000	50.604992 
464.500000	50.344499 
465.000000	50.072462 
465.500000	49.701068 
466.000000	49.261909 
466.500000	48.865325 
467.000000	48.608833 
467.500000	48.420257 
468.000000	48.165416 
468.500000	47.865583 
469.000000	47.574401 
469.500000	47.311401 
470.000000	47.119924 
470.500000	46.925212 
471.000000	46.623318 
471.500000	46.224287 
472.000000	45.858219 
472.500000	45.656340 
473.000000	45.478340 
473.500000	45.331090 
474.000000	45.104772 
474.500000	44.855393 
475.000000	44.530454 
475.500000	44.366553 
476.000000	44.341590 
476.500000	44.291469 
477.000000	44.054681 
477.500000	43.688689 
478.000000	43.380151 
478.500000	43.094606 
479.000000	42.887659 
479.500000	42.667651 
480.000000	42.511439 
480.500000	42.345113 
481.000000	42.219621 
481.500000	42.074969 
482.000000	41.918575 
482.500000	41.743803 
483.000000	41.521712 
483.500000	41.243075 
484.000000	40.981803 
484.500000	40.837727 
485.000000	40.735931 
485.500000	40.610575 
486.000000	40.467553 
486.500000	40.334068 
487.000000	40.251204 
487.500000	40.129325 
488.000000	40.034212 
488.500000	39.826325 
489.000000	39.585424 
489.500000	39.349643 
490.000000	39.378371 
490.500000	39.452818 
491.000000	39.392272 
491.500000	39.053075 
492.000000	38.738833 
492.500000	38.573090 
493.000000	38.514840 
493.500000	38.433848 
494.000000	38.309083 
494.500000	38.172371 
495.000000	37.982840 
495.500000	37.832568 
496.000000	37.697136 
496.500000	37.686393 
497.000000	37.693318 
497.500000	37.660613 
498.000000	37.442765 
498.500000	37.201090 
499.000000	37.007916 
499.500000	36.974469 
500.000000	37.007287 
500.500000	36.970575 
501.000000	36.861803 
501.500000	36.698128 
502.000000	36.502916 
502.500000	36.302681 
503.000000	36.100863 
503.500000	35.915931 
504.000000	35.840507 
504.500000	35.814840 
505.000000	35.821310 
505.500000	35.820053 
506.000000	35.800136 
506.500000	35.761515 
507.000000	35.696704 
507.500000	35.551568 
508.000000	35.362590 
508.500000	35.189303 
509.000000	35.051416 
509.500000	34.990416 
510.000000	34.947492 
510.500000	34.945189 
511.000000	34.900704 
511.500000	34.800295 
512.000000	34.604893 
512.500000	34.519196 
513.000000	34.528151 
513.500000	34.580424 
514.000000	34.456856 
514.500000	34.276469 
515.000000	34.092363 
515.500000	34.003856 
516.000000	33.916454 
516.500000	33.845257 
517.000000	33.811598 
517.500000	33.759916 
518.000000	33.612772 
518.500000	33.468348 
519.000000	33.420280 
519.500000	33.421022 
520.000000	33.277515 
520.500000	33.054030 
521.000000	32.870924 
521.500000	32.755598 
522.000000	32.601310 
522.500000	32.543340 
523.000000	32.602871 
523.500000	32.617083 
524.000000	32.494409 
524.500000	32.342537 
525.000000	32.236159 
525.500000	32.137431 
526.000000	31.996189 
526.500000	31.888522 
527.000000	31.800136 
527.500000	31.703954 
528.000000	31.598795 
528.500000	31.525674 
529.000000	31.426348 
529.500000	31.323598 
530.000000	31.243606 
530.500000	31.174068 
531.000000	31.098621 
531.500000	31.013265 
532.000000	30.903803 
532.500000	30.797696 
533.000000	30.657969 
533.500000	30.522901 
534.000000	30.419242 
534.500000	30.363553 
535.000000	30.266878 
535.500000	30.162681 
536.000000	30.058598 
536.500000	29.992113 
537.000000	29.851151 
537.500000	29.647628 
538.000000	29.482242 
538.500000	29.447621 
539.000000	29.418939 
539.500000	29.351750 
540.000000	29.235265 
540.500000	29.130477 
541.000000	29.010060 
541.500000	28.886727 
542.000000	28.758318 
542.500000	28.610272 
543.000000	28.439590 
543.500000	28.290659 
544.000000	28.224939 
544.500000	28.179136 
545.000000	28.082886 
545.500000	27.904280 
546.000000	27.768696 
546.500000	27.772893 
547.000000	27.838454 
547.500000	27.868931 
548.000000	27.792083 
548.500000	27.714803 
549.000000	27.645719 
549.500000	27.571401 
550.000000	27.381151 
550.500000	27.125477 
551.000000	26.904628 
551.500000	26.811500 
552.000000	26.830568 
552.500000	26.825431 
553.000000	26.734143 
553.500000	26.518303 
554.000000	26.356196 
554.500000	26.305469 
555.000000	26.318659 
555.500000	26.258696 
556.000000	26.140598 
556.500000	26.058522 
557.000000	26.017537 
557.500000	25.935143 
558.000000	25.775454 
558.500000	25.604560 
559.000000	25.465212 
559.500000	25.411189 
560.000000	25.414212 
560.500000	25.323795 
561.000000	25.134863 
561.500000	24.940537 
562.000000	24.874992 
562.500000	24.929098 
563.000000	24.943962 
563.500000	24.859401 
564.000000	24.718545 
564.500000	24.593378 
565.000000	24.475424 
565.500000	24.383181 
566.000000	24.274234 
566.500000	24.180386 
567.000000	24.080780 
567.500000	24.027318 
568.000000	23.995454 
568.500000	24.003469 
569.000000	23.914931 
569.500000	23.802325 
570.000000	23.607484 
570.500000	23.443621 
571.000000	23.346568 
571.500000	23.377477 
572.000000	23.374628 
572.500000	23.226863 
573.000000	22.975174 
573.500000	22.790545 
574.000000	22.753106 
574.500000	22.781537 
575.000000	22.761560 
575.500000	22.731371 
576.000000	22.620507 
576.500000	22.524204 
577.000000	22.374969 
577.500000	22.290840 
578.000000	22.184522 
578.500000	22.148333 
579.000000	22.047272 
579.500000	21.927378 
580.000000	21.807575 
580.500000	21.758674 
581.000000	21.708954 
581.500000	21.593303 
582.000000	21.409954 
582.500000	21.308393 
583.000000	21.254234 
583.500000	21.178522 
584.000000	21.068878 
584.500000	21.024560 
585.000000	20.997272 
585.500000	20.914522 
586.000000	20.750984 
586.500000	20.621068 
587.000000	20.544886 
587.500000	20.425053 
588.000000	20.294719 
588.500000	20.192484 
589.000000	20.157098 
589.500000	20.073863 
590.000000	19.912431 
590.500000	19.767750 
591.000000	19.763803 
591.500000	19.818848 
592.000000	19.815765 
592.500000	19.727015 
593.000000	19.662931 
593.500000	19.588780 
594.000000	19.412212 
594.500000	19.163795 
595.000000	19.057060 
595.500000	19.106189 
596.000000	19.204651 
596.500000	19.196954 
597.000000	19.110287 
597.500000	18.938113 
598.000000	18.756060 
598.500000	18.585750 
599.000000	18.518083 
599.500000	18.548083 
600.000000	18.639000 

