PE FL                   SPECTRUM    ASCII       PEDS        1.60        
  -1
CDSRT#41.SP
02/03/22
03:10:08.00
02/03/22
03:12:41.00


500.000000
1









LS55
520.00
5.00
5.00
SCAN
1
20
100
100
0
100
0
0
0
1
7
ON
490 450 
1 0 0
#HDR
-1
-1
#GR
NM

0.00002384185791015625
0.0
270.000000
0.500000
461
8
32.204045
2.083810
#DATA
270.000000	2.165000  
270.500000	2.219416  
271.000000	2.227636  
271.500000	2.205204  
272.000000	2.211568  
272.500000	2.212704  
273.000000	2.193954  
273.500000	2.167992  
274.000000	2.167386  
274.500000	2.176734  
275.000000	2.202681  
275.500000	2.194098  
276.000000	2.163143  
276.500000	2.151007  
277.000000	2.175704  
277.500000	2.193954  
278.000000	2.180166  
278.500000	2.165424  
279.000000	2.156303  
279.500000	2.129969  
280.000000	2.084606  
280.500000	2.083810  
281.000000	2.102621  
281.500000	2.133984  
282.000000	2.131704  
282.500000	2.124121  
283.000000	2.094719  
283.500000	2.092015  
284.000000	2.099416  
284.500000	2.117833  
285.000000	2.110136  
285.500000	2.103848  
286.000000	2.115037  
286.500000	2.139219  
287.000000	2.151000  
287.500000	2.129356  
288.000000	2.105560  
288.500000	2.108462  
289.000000	2.155515  
289.500000	2.186068  
290.000000	2.188954  
290.500000	2.174098  
291.000000	2.176818  
291.500000	2.182053  
292.000000	2.202666  
292.500000	2.225772  
293.000000	2.245106  
293.500000	2.252840  
294.000000	2.270537  
294.500000	2.296530  
295.000000	2.320810  
295.500000	2.360318  
296.000000	2.441037  
296.500000	2.575431  
297.000000	2.726219  
297.500000	2.940257  
298.000000	3.199530  
298.500000	3.516696  
299.000000	3.870272  
299.500000	4.334121  
300.000000	4.959886  
300.500000	5.711189  
301.000000	6.478545  
301.500000	7.238446  
302.000000	8.077492  
302.500000	9.009113  
303.000000	9.975681  
303.500000	10.885295 
304.000000	11.689348 
304.500000	12.411833 
305.000000	13.093462 
305.500000	13.749257 
306.000000	14.337992 
306.500000	14.808787 
307.000000	15.233992 
307.500000	15.656371 
308.000000	16.114295 
308.500000	16.479924 
309.000000	16.785590 
309.500000	16.971704 
310.000000	17.136431 
310.500000	17.228151 
311.000000	17.349136 
311.500000	17.412780 
312.000000	17.473318 
312.500000	17.465924 
313.000000	17.537825 
313.500000	17.651121 
314.000000	17.829295 
314.500000	17.927500 
315.000000	18.014053 
315.500000	18.013500 
316.000000	18.014977 
316.500000	18.019128 
317.000000	18.107469 
317.500000	18.193287 
318.000000	18.285363 
318.500000	18.294015 
319.000000	18.272992 
319.500000	18.244530 
320.000000	18.258810 
320.500000	18.338962 
321.000000	18.403590 
321.500000	18.459000 
322.000000	18.508045 
322.500000	18.603113 
323.000000	18.667613 
323.500000	18.749015 
324.000000	18.773174 
324.500000	18.790484 
325.000000	18.825780 
325.500000	18.932674 
326.000000	19.091462 
326.500000	19.220946 
327.000000	19.284393 
327.500000	19.363553 
328.000000	19.517090 
328.500000	19.709000 
329.000000	19.873704 
329.500000	19.976553 
330.000000	20.057500 
330.500000	20.211681 
331.000000	20.346734 
331.500000	20.464037 
332.000000	20.568250 
332.500000	20.753378 
333.000000	20.925363 
333.500000	21.090636 
334.000000	21.218310 
334.500000	21.396712 
335.000000	21.573068 
335.500000	21.758530 
336.000000	21.936810 
336.500000	22.069878 
337.000000	22.177863 
337.500000	22.350234 
338.000000	22.628537 
338.500000	22.936575 
339.000000	23.188583 
339.500000	23.370666 
340.000000	23.514159 
340.500000	23.623000 
341.000000	23.693348 
341.500000	23.758204 
342.000000	23.866689 
342.500000	24.055401 
343.000000	24.314378 
343.500000	24.559863 
344.000000	24.707363 
344.500000	24.796568 
345.000000	24.956219 
345.500000	25.224113 
346.000000	25.505272 
346.500000	25.734068 
347.000000	25.898530 
347.500000	26.078257 
348.000000	26.296015 
348.500000	26.540636 
349.000000	26.734568 
349.500000	26.837106 
350.000000	26.944242 
350.500000	27.196363 
351.000000	27.590106 
351.500000	27.939204 
352.000000	28.156075 
352.500000	28.325371 
353.000000	28.574583 
353.500000	28.872583 
354.000000	29.042916 
354.500000	29.131083 
355.000000	29.274477 
355.500000	29.564060 
356.000000	29.859234 
356.500000	30.058712 
357.000000	30.172098 
357.500000	30.296537 
358.000000	30.485083 
358.500000	30.703303 
359.000000	30.931628 
359.500000	31.164840 
360.000000	31.387318 
360.500000	31.592280 
361.000000	31.767878 
361.500000	31.911143 
362.000000	32.019166 
362.500000	32.067977 
363.000000	32.057742 
363.500000	32.066999 
364.000000	32.154037 
364.500000	32.202712 
365.000000	32.204045 
365.500000	32.175424 
366.000000	32.183575 
366.500000	32.110348 
367.000000	31.996393 
367.500000	31.915871 
368.000000	31.915113 
368.500000	31.869780 
369.000000	31.759363 
369.500000	31.601234 
370.000000	31.386848 
370.500000	31.137878 
371.000000	30.902340 
371.500000	30.700348 
372.000000	30.529507 
372.500000	30.392484 
373.000000	30.233840 
373.500000	29.980492 
374.000000	29.633628 
374.500000	29.254204 
375.000000	28.887916 
375.500000	28.573787 
376.000000	28.269924 
376.500000	27.924159 
377.000000	27.568090 
377.500000	27.282674 
378.000000	27.066166 
378.500000	26.785409 
379.000000	26.422060 
379.500000	26.005674 
380.000000	25.580803 
380.500000	25.128780 
381.000000	24.766833 
381.500000	24.551219 
382.000000	24.370166 
382.500000	24.107909 
383.000000	23.713378 
383.500000	23.310030 
384.000000	22.960810 
384.500000	22.670643 
385.000000	22.392825 
385.500000	22.124931 
386.000000	21.860522 
386.500000	21.595143 
387.000000	21.304583 
387.500000	20.929704 
388.000000	20.545250 
388.500000	20.205765 
389.000000	19.961704 
389.500000	19.726136 
390.000000	19.430121 
390.500000	19.073863 
391.000000	18.759583 
391.500000	18.499287 
392.000000	18.245439 
392.500000	17.965022 
393.000000	17.690484 
393.500000	17.397280 
394.000000	17.120484 
394.500000	16.877651 
395.000000	16.695227 
395.500000	16.493454 
396.000000	16.200878 
396.500000	15.872363 
397.000000	15.587265 
397.500000	15.374121 
398.000000	15.115363 
398.500000	14.865628 
399.000000	14.627060 
399.500000	14.445181 
400.000000	14.223734 
400.500000	13.990507 
401.000000	13.765113 
401.500000	13.550916 
402.000000	13.306969 
402.500000	13.045462 
403.000000	12.813742 
403.500000	12.610984 
404.000000	12.424462 
404.500000	12.239969 
405.000000	12.041893 
405.500000	11.838462 
406.000000	11.638893 
406.500000	11.412371 
407.000000	11.160090 
407.500000	10.914583 
408.000000	10.705212 
408.500000	10.514946 
409.000000	10.344068 
409.500000	10.189590 
410.000000	10.051666 
410.500000	9.900757  
411.000000	9.691106  
411.500000	9.447204  
412.000000	9.224553  
412.500000	9.084022  
413.000000	8.986227  
413.500000	8.855924  
414.000000	8.689621  
414.500000	8.539719  
415.000000	8.433787  
415.500000	8.344689  
416.000000	8.229977  
416.500000	8.077068  
417.000000	7.929310  
417.500000	7.814393  
418.000000	7.698090  
418.500000	7.563454  
419.000000	7.441227  
419.500000	7.358886  
420.000000	7.264924  
420.500000	7.142318  
421.000000	7.016856  
421.500000	6.908621  
422.000000	6.797113  
422.500000	6.684749  
423.000000	6.602856  
423.500000	6.555189  
424.000000	6.513924  
424.500000	6.463174  
425.000000	6.406136  
425.500000	6.324227  
426.000000	6.255893  
426.500000	6.201075  
427.000000	6.143727  
427.500000	6.089871  
428.000000	6.059477  
428.500000	6.026204  
429.000000	5.968984  
429.500000	5.868121  
430.000000	5.777977  
430.500000	5.729977  
431.000000	5.718174  
431.500000	5.710863  
432.000000	5.689037  
432.500000	5.639727  
433.000000	5.585969  
433.500000	5.520628  
434.000000	5.422651  
434.500000	5.307363  
435.000000	5.229803  
435.500000	5.180499  
436.000000	5.131901  
436.500000	5.044143  
437.000000	4.962393  
437.500000	4.906371  
438.000000	4.867439  
438.500000	4.811583  
439.000000	4.764378  
439.500000	4.761636  
440.000000	4.780969  
440.500000	4.755916  
441.000000	4.664613  
441.500000	4.559090  
442.000000	4.491537  
442.500000	4.460227  
443.000000	4.442742  
443.500000	4.422621  
444.000000	4.381401  
444.500000	4.347666  
445.000000	4.309121  
445.500000	4.267863  
446.000000	4.205901  
446.500000	4.175174  
447.000000	4.173757  
447.500000	4.200037  
448.000000	4.219151  
448.500000	4.231416  
449.000000	4.208848  
449.500000	4.168825  
450.000000	4.125356  
450.500000	4.102833  
451.000000	4.074015  
451.500000	4.049651  
452.000000	4.019553  
452.500000	4.001242  
453.000000	3.970477  
453.500000	3.950446  
454.000000	3.910659  
454.500000	3.856553  
455.000000	3.798090  
455.500000	3.768068  
456.000000	3.759515  
456.500000	3.753833  
457.000000	3.748234  
457.500000	3.738348  
458.000000	3.710159  
458.500000	3.652659  
459.000000	3.592053  
459.500000	3.553287  
460.000000	3.549068  
460.500000	3.563909  
461.000000	3.570401  
461.500000	3.545174  
462.000000	3.513500  
462.500000	3.515257  
463.000000	3.545946  
463.500000	3.544159  
464.000000	3.511431  
464.500000	3.462015  
465.000000	3.424484  
465.500000	3.395393  
466.000000	3.397439  
466.500000	3.401871  
467.000000	3.388553  
467.500000	3.347159  
468.000000	3.334795  
468.500000	3.352045  
469.000000	3.370499  
469.500000	3.343333  
470.000000	3.311325  
470.500000	3.306416  
471.000000	3.332371  
471.500000	3.320151  
472.000000	3.265848  
472.500000	3.232750  
473.000000	3.258969  
473.500000	3.297121  
474.000000	3.297719  
474.500000	3.272484  
475.000000	3.262969  
475.500000	3.268401  
476.000000	3.263303  
476.500000	3.242083  
477.000000	3.222507  
477.500000	3.213219  
478.000000	3.223606  
478.500000	3.245325  
479.000000	3.253628  
479.500000	3.241568  
480.000000	3.204575  
480.500000	3.175878  
481.000000	3.150159  
481.500000	3.135749  
482.000000	3.132734  
482.500000	3.136492  
483.000000	3.135151  
483.500000	3.144272  
484.000000	3.177977  
484.500000	3.217090  
485.000000	3.230712  
485.500000	3.236083  
486.000000	3.239946  
486.500000	3.255484  
487.000000	3.266250  
487.500000	3.320636  
488.000000	3.370727  
488.500000	3.425515  
489.000000	3.446424  
489.500000	3.486636  
490.000000	3.519659  
490.500000	3.561772  
491.000000	3.615666  
491.500000	3.699227  
492.000000	3.784500  
492.500000	3.813174  
493.000000	3.836499  
493.500000	3.882030  
494.000000	3.996454  
494.500000	4.122371  
495.000000	4.255848  
495.500000	4.353977  
496.000000	4.413181  
496.500000	4.446750  
497.000000	4.481795  
497.500000	4.550575  
498.000000	4.645462  
498.500000	4.773439  
499.000000	4.915446  
499.500000	5.073606  
500.000000	5.232000  

