PE FL                   SPECTRUM    ASCII       PEDS        1.60        
  -1
CDSRT#40.SP
02/03/22
03:07:54.00
02/03/22
03:09:56.00


450.000000
1









LS55
490.00
5.00
5.00
SCAN
1
20
100
100
0
100
0
0
0
1
7
ON
450 400 
1 0 0
#HDR
-1
-1
#GR
NM

0.00002384185791015625
0.0
270.000000
0.500000
361
8
38.673287
3.044000
#DATA
270.000000	3.044000  
270.500000	3.214393  
271.000000	3.297507  
271.500000	3.317825  
272.000000	3.307181  
272.500000	3.314431  
273.000000	3.309909  
273.500000	3.305977  
274.000000	3.278893  
274.500000	3.256674  
275.000000	3.267469  
275.500000	3.291272  
276.000000	3.301969  
276.500000	3.244878  
277.000000	3.190462  
277.500000	3.144681  
278.000000	3.147939  
278.500000	3.161833  
279.000000	3.196909  
279.500000	3.214143  
280.000000	3.237757  
280.500000	3.265280  
281.000000	3.272878  
281.500000	3.234909  
282.000000	3.175977  
282.500000	3.141969  
283.000000	3.137515  
283.500000	3.149795  
284.000000	3.161560  
284.500000	3.164939  
285.000000	3.130893  
285.500000	3.078030  
286.000000	3.049560  
286.500000	3.071583  
287.000000	3.106780  
287.500000	3.130166  
288.000000	3.124333  
288.500000	3.128750  
289.000000	3.162674  
289.500000	3.211356  
290.000000	3.231068  
290.500000	3.222212  
291.000000	3.195439  
291.500000	3.173424  
292.000000	3.160863  
292.500000	3.175909  
293.000000	3.209780  
293.500000	3.239136  
294.000000	3.256257  
294.500000	3.259340  
295.000000	3.272280  
295.500000	3.302371  
296.000000	3.393462  
296.500000	3.545825  
297.000000	3.789340  
297.500000	4.092818  
298.000000	4.500409  
298.500000	4.960962  
299.000000	5.557499  
299.500000	6.287325  
300.000000	7.176840  
300.500000	8.141924  
301.000000	9.192030  
301.500000	10.326704 
302.000000	11.602340 
302.500000	12.970363 
303.000000	14.307174 
303.500000	15.526340 
304.000000	16.653962 
304.500000	17.659272 
305.000000	18.584810 
305.500000	19.339022 
306.000000	20.111212 
306.500000	20.842393 
307.000000	21.598719 
307.500000	22.162939 
308.000000	22.621818 
308.500000	22.900583 
309.000000	23.140022 
309.500000	23.363568 
310.000000	23.578583 
310.500000	23.687719 
311.000000	23.646219 
311.500000	23.567583 
312.000000	23.526560 
312.500000	23.538590 
313.000000	23.548303 
313.500000	23.569871 
314.000000	23.533242 
314.500000	23.415234 
315.000000	23.245181 
315.500000	23.148000 
316.000000	23.068219 
316.500000	22.978522 
317.000000	22.868621 
317.500000	22.731924 
318.000000	22.562181 
318.500000	22.383878 
319.000000	22.253022 
319.500000	22.182696 
320.000000	22.089825 
320.500000	21.997606 
321.000000	21.970787 
321.500000	22.068083 
322.000000	22.141113 
322.500000	22.157378 
323.000000	22.076704 
323.500000	22.027348 
324.000000	22.048166 
324.500000	22.132446 
325.000000	22.264409 
325.500000	22.342825 
326.000000	22.372742 
326.500000	22.400590 
327.000000	22.571060 
327.500000	22.808878 
328.000000	23.031553 
328.500000	23.076780 
329.000000	23.026159 
329.500000	23.009931 
330.000000	23.175560 
330.500000	23.406568 
331.000000	23.609909 
331.500000	23.760431 
332.000000	23.963265 
332.500000	24.218409 
333.000000	24.457818 
333.500000	24.671704 
334.000000	24.831530 
334.500000	24.968500 
335.000000	25.153446 
335.500000	25.474393 
336.000000	25.809992 
336.500000	26.051416 
337.000000	26.148401 
337.500000	26.271833 
338.000000	26.497765 
338.500000	26.818378 
339.000000	27.146053 
339.500000	27.427681 
340.000000	27.648106 
340.500000	27.901863 
341.000000	28.141212 
341.500000	28.390333 
342.000000	28.630007 
342.500000	28.866128 
343.000000	29.064030 
343.500000	29.320780 
344.000000	29.545272 
344.500000	29.740151 
345.000000	29.867250 
345.500000	30.051553 
346.000000	30.278378 
346.500000	30.500189 
347.000000	30.779257 
347.500000	31.146886 
348.000000	31.556098 
348.500000	31.859909 
349.000000	32.111871 
349.500000	32.293939 
350.000000	32.495356 
350.500000	32.793310 
351.000000	33.164212 
351.500000	33.500863 
352.000000	33.694098 
352.500000	33.819681 
353.000000	33.928280 
353.500000	34.150083 
354.000000	34.462962 
354.500000	34.813333 
355.000000	35.065492 
355.500000	35.256954 
356.000000	35.552606 
356.500000	35.971818 
357.000000	36.323568 
357.500000	36.513749 
358.000000	36.655606 
358.500000	36.868499 
359.000000	37.145022 
359.500000	37.384128 
360.000000	37.587522 
360.500000	37.761037 
361.000000	37.944181 
361.500000	38.065651 
362.000000	38.189507 
362.500000	38.317151 
363.000000	38.486643 
363.500000	38.600151 
364.000000	38.625166 
364.500000	38.619606 
365.000000	38.654469 
365.500000	38.673287 
366.000000	38.556878 
366.500000	38.410356 
367.000000	38.233106 
367.500000	38.084219 
368.000000	37.935439 
368.500000	37.862212 
369.000000	37.799189 
369.500000	37.736393 
370.000000	37.617181 
370.500000	37.452477 
371.000000	37.211401 
371.500000	37.005909 
372.000000	36.878500 
372.500000	36.762863 
373.000000	36.475962 
373.500000	36.110174 
374.000000	35.734689 
374.500000	35.373742 
375.000000	34.950113 
375.500000	34.539340 
376.000000	34.204537 
376.500000	33.952492 
377.000000	33.634712 
377.500000	33.220007 
378.000000	32.811348 
378.500000	32.466098 
379.000000	32.089810 
379.500000	31.649166 
380.000000	31.184727 
380.500000	30.776560 
381.000000	30.431825 
381.500000	30.170598 
382.000000	29.946272 
382.500000	29.675409 
383.000000	29.259659 
383.500000	28.777242 
384.000000	28.349189 
384.500000	27.970878 
385.000000	27.618984 
385.500000	27.247242 
386.000000	26.879053 
386.500000	26.510871 
387.000000	26.124984 
387.500000	25.671909 
388.000000	25.227856 
388.500000	24.863348 
389.000000	24.577181 
389.500000	24.339946 
390.000000	24.102045 
390.500000	23.798363 
391.000000	23.457257 
391.500000	23.087060 
392.000000	22.777757 
392.500000	22.429871 
393.000000	22.074984 
393.500000	21.687598 
394.000000	21.341030 
394.500000	21.017280 
395.000000	20.798287 
395.500000	20.590356 
396.000000	20.270477 
396.500000	19.870833 
397.000000	19.538772 
397.500000	19.365909 
398.000000	19.172560 
398.500000	18.879530 
399.000000	18.524378 
399.500000	18.154348 
400.000000	17.788401 
400.500000	17.440181 
401.000000	17.150492 
401.500000	16.887356 
402.000000	16.653462 
402.500000	16.382484 
403.000000	16.101022 
403.500000	15.810590 
404.000000	15.564522 
404.500000	15.370060 
405.000000	15.139431 
405.500000	14.856242 
406.000000	14.597401 
406.500000	14.399689 
407.000000	14.224212 
407.500000	13.995825 
408.000000	13.748643 
408.500000	13.536681 
409.000000	13.346356 
409.500000	13.055318 
410.000000	12.697454 
410.500000	12.377696 
411.000000	12.179250 
411.500000	12.041727 
412.000000	11.874265 
412.500000	11.654590 
413.000000	11.422303 
413.500000	11.214128 
414.000000	11.038537 
414.500000	10.849696 
415.000000	10.652750 
415.500000	10.462636 
416.000000	10.365083 
416.500000	10.311818 
417.000000	10.285522 
417.500000	10.187371 
418.000000	10.030954 
418.500000	9.817325  
419.000000	9.685022  
419.500000	9.590659  
420.000000	9.517212  
420.500000	9.438409  
421.000000	9.388143  
421.500000	9.332431  
422.000000	9.263969  
422.500000	9.183818  
423.000000	9.114083  
423.500000	9.029825  
424.000000	8.924606  
424.500000	8.838545  
425.000000	8.811416  
425.500000	8.789598  
426.000000	8.758454  
426.500000	8.698037  
427.000000	8.643257  
427.500000	8.583515  
428.000000	8.538734  
428.500000	8.489999  
429.000000	8.428553  
429.500000	8.296303  
430.000000	8.145151  
430.500000	8.008628  
431.000000	7.949969  
431.500000	7.908787  
432.000000	7.853280  
432.500000	7.735196  
433.000000	7.627371  
433.500000	7.591477  
434.000000	7.608583  
434.500000	7.597765  
435.000000	7.502590  
435.500000	7.378553  
436.000000	7.254643  
436.500000	7.178712  
437.000000	7.128901  
437.500000	7.088378  
438.000000	7.032068  
438.500000	6.961878  
439.000000	6.897681  
439.500000	6.839598  
440.000000	6.769772  
440.500000	6.689515  
441.000000	6.631242  
441.500000	6.599992  
442.000000	6.580340  
442.500000	6.561227  
443.000000	6.504098  
443.500000	6.406757  
444.000000	6.287424  
444.500000	6.220803  
445.000000	6.207492  
445.500000	6.222234  
446.000000	6.171151  
446.500000	6.082712  
447.000000	5.988742  
447.500000	5.948318  
448.000000	5.959439  
448.500000	5.988515  
449.000000	5.986727  
449.500000	5.948871  
450.000000	5.872000  

