PE FL                   SPECTRUM    ASCII       PEDS        1.60        
  -1
CDSRT#42.SP
02/03/22
03:13:06.00
02/03/22
03:15:41.00


540.000000
1









LS55
280.00
5.00
5.00
SCAN
1
20
100
100
0
100
0
1
0
1
7
ON
520 500 
1 0 0
#HDR
-1
-1
#GR
NM

0.00002384185791015625
0.0
300.000000
0.500000
481
8
14.359174
1.520000
#DATA
300.000000	1.520000  
300.500000	1.909454  
301.000000	2.256045  
301.500000	2.607545  
302.000000	3.088196  
302.500000	3.630492  
303.000000	4.217696  
303.500000	4.867992  
304.000000	5.578553  
304.500000	6.238371  
305.000000	6.865727  
305.500000	7.604848  
306.000000	8.469053  
306.500000	9.347492  
307.000000	10.098878 
307.500000	10.751560 
308.000000	11.362992 
308.500000	11.886893 
309.000000	12.388553 
309.500000	12.859659 
310.000000	13.303106 
310.500000	13.596446 
311.000000	13.802227 
311.500000	13.967583 
312.000000	14.172916 
312.500000	14.319454 
313.000000	14.359174 
313.500000	14.295848 
314.000000	14.266689 
314.500000	14.290787 
315.000000	14.334250 
315.500000	14.251606 
316.000000	14.108931 
316.500000	13.989318 
317.000000	13.963159 
317.500000	13.960401 
318.000000	13.896204 
318.500000	13.758757 
319.000000	13.619196 
319.500000	13.538181 
320.000000	13.528939 
320.500000	13.485303 
321.000000	13.387856 
321.500000	13.204613 
322.000000	13.081090 
322.500000	13.003007 
323.000000	12.991219 
323.500000	12.929409 
324.000000	12.793143 
324.500000	12.625901 
325.000000	12.459659 
325.500000	12.354106 
326.000000	12.247568 
326.500000	12.154068 
327.000000	11.984825 
327.500000	11.779931 
328.000000	11.572439 
328.500000	11.466166 
329.000000	11.419643 
329.500000	11.348454 
330.000000	11.193522 
330.500000	11.020522 
331.000000	10.892196 
331.500000	10.804113 
332.000000	10.647075 
332.500000	10.454871 
333.000000	10.278560 
333.500000	10.205507 
334.000000	10.106121 
334.500000	9.955469  
335.000000	9.781886  
335.500000	9.693666  
336.000000	9.677007  
336.500000	9.636848  
337.000000	9.525621  
337.500000	9.333825  
338.000000	9.155704  
338.500000	8.976310  
339.000000	8.854098  
339.500000	8.754280  
340.000000	8.699939  
340.500000	8.607621  
341.000000	8.482416  
341.500000	8.352530  
342.000000	8.260984  
342.500000	8.166886  
343.000000	8.074984  
343.500000	7.949795  
344.000000	7.840575  
344.500000	7.755219  
345.000000	7.710371  
345.500000	7.639219  
346.000000	7.549477  
346.500000	7.441393  
347.000000	7.337939  
347.500000	7.212386  
348.000000	7.091484  
348.500000	7.019045  
349.000000	6.984333  
349.500000	6.939825  
350.000000	6.830090  
350.500000	6.707242  
351.000000	6.638287  
351.500000	6.665742  
352.000000	6.706522  
352.500000	6.692803  
353.000000	6.571795  
353.500000	6.430000  
354.000000	6.323159  
354.500000	6.271257  
355.000000	6.231893  
355.500000	6.201560  
356.000000	6.196848  
356.500000	6.197439  
357.000000	6.172454  
357.500000	6.104772  
358.000000	6.043409  
358.500000	5.981500  
359.000000	5.923462  
359.500000	5.869984  
360.000000	5.819765  
360.500000	5.806333  
361.000000	5.793750  
361.500000	5.773803  
362.000000	5.702295  
362.500000	5.644356  
363.000000	5.605416  
363.500000	5.642954  
364.000000	5.665575  
364.500000	5.645590  
365.000000	5.563696  
365.500000	5.491409  
366.000000	5.442901  
366.500000	5.434537  
367.000000	5.444780  
367.500000	5.470325  
368.000000	5.447666  
368.500000	5.392598  
369.000000	5.344174  
369.500000	5.314712  
370.000000	5.317303  
370.500000	5.349515  
371.000000	5.410916  
371.500000	5.421871  
372.000000	5.398833  
372.500000	5.375060  
373.000000	5.425060  
373.500000	5.459151  
374.000000	5.446272  
374.500000	5.390568  
375.000000	5.378303  
375.500000	5.398651  
376.000000	5.415689  
376.500000	5.398348  
377.000000	5.409462  
377.500000	5.433075  
378.000000	5.444795  
378.500000	5.407181  
379.000000	5.392083  
379.500000	5.423446  
380.000000	5.488000  
380.500000	5.519621  
381.000000	5.480659  
381.500000	5.401863  
382.000000	5.345257  
382.500000	5.366500  
383.000000	5.435098  
383.500000	5.500575  
384.000000	5.522204  
384.500000	5.547462  
385.000000	5.590454  
385.500000	5.647007  
386.000000	5.674151  
386.500000	5.705401  
387.000000	5.705257  
387.500000	5.658318  
388.000000	5.564189  
388.500000	5.565818  
389.000000	5.642356  
389.500000	5.688462  
390.000000	5.640090  
390.500000	5.610507  
391.000000	5.654840  
391.500000	5.714613  
392.000000	5.776674  
392.500000	5.886015  
393.000000	6.022590  
393.500000	6.089249  
394.000000	6.098371  
394.500000	6.106772  
395.000000	6.108742  
395.500000	6.034734  
396.000000	5.911318  
396.500000	5.859840  
397.000000	5.932166  
397.500000	6.043840  
398.000000	6.100643  
398.500000	6.090560  
399.000000	6.089143  
399.500000	6.121212  
400.000000	6.173727  
400.500000	6.211340  
401.000000	6.233462  
401.500000	6.242249  
402.000000	6.235348  
402.500000	6.243613  
403.000000	6.252734  
403.500000	6.273795  
404.000000	6.294143  
404.500000	6.343515  
405.000000	6.398969  
405.500000	6.452704  
406.000000	6.487727  
406.500000	6.525439  
407.000000	6.562424  
407.500000	6.588090  
408.000000	6.592053  
408.500000	6.574431  
409.000000	6.587666  
409.500000	6.610696  
410.000000	6.633916  
410.500000	6.631681  
411.000000	6.655106  
411.500000	6.650098  
412.000000	6.625272  
412.500000	6.613969  
413.000000	6.705780  
413.500000	6.839151  
414.000000	6.878166  
414.500000	6.809431  
415.000000	6.713007  
415.500000	6.662689  
416.000000	6.647787  
416.500000	6.703401  
417.000000	6.769000  
417.500000	6.818181  
418.000000	6.789659  
418.500000	6.786106  
419.000000	6.825090  
419.500000	6.894856  
420.000000	6.900598  
420.500000	6.891212  
421.000000	6.895303  
421.500000	6.930015  
422.000000	6.950515  
422.500000	6.892075  
423.000000	6.802416  
423.500000	6.752984  
424.000000	6.763227  
424.500000	6.779818  
425.000000	6.807174  
425.500000	6.866113  
426.000000	6.875712  
426.500000	6.801128  
427.000000	6.693613  
427.500000	6.689196  
428.000000	6.721560  
428.500000	6.733151  
429.000000	6.668893  
429.500000	6.613795  
430.000000	6.574916  
430.500000	6.574545  
431.000000	6.568098  
431.500000	6.561409  
432.000000	6.530757  
432.500000	6.532553  
433.000000	6.550787  
433.500000	6.582151  
434.000000	6.559037  
434.500000	6.489946  
435.000000	6.433590  
435.500000	6.431545  
436.000000	6.443583  
436.500000	6.425962  
437.000000	6.400749  
437.500000	6.352772  
438.000000	6.276121  
438.500000	6.194143  
439.000000	6.176765  
439.500000	6.191909  
440.000000	6.193166  
440.500000	6.161818  
441.000000	6.144265  
441.500000	6.111106  
442.000000	6.052439  
442.500000	5.964545  
443.000000	5.928348  
443.500000	5.923409  
444.000000	5.927507  
444.500000	5.889257  
445.000000	5.857765  
445.500000	5.820257  
446.000000	5.821189  
446.500000	5.765068  
447.000000	5.707272  
447.500000	5.650719  
448.000000	5.651522  
448.500000	5.604265  
449.000000	5.513454  
449.500000	5.388530  
450.000000	5.321265  
450.500000	5.295174  
451.000000	5.289924  
451.500000	5.321893  
452.000000	5.349053  
452.500000	5.308810  
453.000000	5.226575  
453.500000	5.186659  
454.000000	5.207833  
454.500000	5.205727  
455.000000	5.149356  
455.500000	5.084628  
456.000000	5.070833  
456.500000	5.066863  
457.000000	5.039719  
457.500000	4.990181  
458.000000	4.928666  
458.500000	4.851583  
459.000000	4.761530  
459.500000	4.718174  
460.000000	4.708212  
460.500000	4.683795  
461.000000	4.610083  
461.500000	4.525575  
462.000000	4.493204  
462.500000	4.519840  
463.000000	4.583371  
463.500000	4.598946  
464.000000	4.535340  
464.500000	4.436196  
465.000000	4.371909  
465.500000	4.350659  
466.000000	4.335674  
466.500000	4.319606  
467.000000	4.262969  
467.500000	4.177090  
468.000000	4.092621  
468.500000	4.072621  
469.000000	4.067931  
469.500000	4.046053  
470.000000	4.018704  
470.500000	4.034098  
471.000000	4.045643  
471.500000	4.023446  
472.000000	3.964977  
472.500000	3.911159  
473.000000	3.866984  
473.500000	3.840810  
474.000000	3.831901  
474.500000	3.815924  
475.000000	3.769977  
475.500000	3.699719  
476.000000	3.673931  
476.500000	3.675280  
477.000000	3.676765  
477.500000	3.641363  
478.000000	3.598863  
478.500000	3.543446  
479.000000	3.512590  
479.500000	3.491159  
480.000000	3.476469  
480.500000	3.481984  
481.000000	3.541946  
481.500000	3.620015  
482.000000	3.625560  
482.500000	3.536598  
483.000000	3.441416  
483.500000	3.419568  
484.000000	3.444340  
484.500000	3.470106  
485.000000	3.461545  
485.500000	3.411999  
486.000000	3.362901  
486.500000	3.322916  
487.000000	3.310242  
487.500000	3.300590  
488.000000	3.286143  
488.500000	3.249257  
489.000000	3.227212  
489.500000	3.219212  
490.000000	3.208992  
490.500000	3.170969  
491.000000	3.101780  
491.500000	3.047310  
492.000000	2.995469  
492.500000	2.983454  
493.000000	2.985272  
493.500000	2.986833  
494.000000	2.922181  
494.500000	2.858121  
495.000000	2.805409  
495.500000	2.830378  
496.000000	2.850363  
496.500000	2.862303  
497.000000	2.814121  
497.500000	2.801234  
498.000000	2.798886  
498.500000	2.805030  
499.000000	2.742590  
499.500000	2.697250  
500.000000	2.674469  
500.500000	2.680204  
501.000000	2.660227  
501.500000	2.629446  
502.000000	2.566803  
502.500000	2.530196  
503.000000	2.525098  
503.500000	2.557795  
504.000000	2.544537  
504.500000	2.505371  
505.000000	2.484318  
505.500000	2.490962  
506.000000	2.482272  
506.500000	2.463113  
507.000000	2.465484  
507.500000	2.473946  
508.000000	2.464409  
508.500000	2.412242  
509.000000	2.352045  
509.500000	2.308893  
510.000000	2.303704  
510.500000	2.339083  
511.000000	2.375954  
511.500000	2.385666  
512.000000	2.355196  
512.500000	2.320174  
513.000000	2.309492  
513.500000	2.307583  
514.000000	2.299015  
514.500000	2.272462  
515.000000	2.246621  
515.500000	2.204810  
516.000000	2.177356  
516.500000	2.165401  
517.000000	2.159401  
517.500000	2.131484  
518.000000	2.099159  
518.500000	2.098507  
519.000000	2.113098  
519.500000	2.127348  
520.000000	2.130780  
520.500000	2.120833  
521.000000	2.078750  
521.500000	2.013643  
522.000000	1.975431  
522.500000	1.957060  
523.000000	1.953765  
523.500000	1.939113  
524.000000	1.938553  
524.500000	1.955537  
525.000000	1.989454  
525.500000	2.005515  
526.000000	1.998840  
526.500000	1.976848  
527.000000	1.961409  
527.500000	1.951734  
528.000000	1.934136  
528.500000	1.902590  
529.000000	1.892598  
529.500000	1.888734  
530.000000	1.900030  
530.500000	1.888537  
531.000000	1.879992  
531.500000	1.862143  
532.000000	1.847393  
532.500000	1.813000  
533.000000	1.801090  
533.500000	1.782666  
534.000000	1.760045  
534.500000	1.736848  
535.000000	1.730212  
535.500000	1.721893  
536.000000	1.697310  
536.500000	1.659234  
537.000000	1.647121  
537.500000	1.653189  
538.000000	1.657863  
538.500000	1.645507  
539.000000	1.634166  
539.500000	1.642204  
540.000000	1.680000  

