PE FL                   SPECTRUM    ASCII       PEDS        1.60        
  -1
CDSRT#39.SP
02/03/22
03:06:01.00
02/03/22
03:07:38.00


400.000000
1









LS55
450.00
5.00
5.00
SCAN
1
20
100
100
0
100
0
0
0
1
7
ON
420 400 
1 0 0
#HDR
-1
-1
#GR
NM

0.00002384185791015625
0.0
250.000000
0.500000
301
8
58.917674
3.928999
#DATA
250.000000	3.928999  
250.500000	4.143371  
251.000000	4.261636  
251.500000	4.273242  
252.000000	4.283212  
252.500000	4.295416  
253.000000	4.347386  
253.500000	4.395674  
254.000000	4.450666  
254.500000	4.497090  
255.000000	4.569909  
255.500000	4.617075  
256.000000	4.601204  
256.500000	4.583969  
257.000000	4.613181  
257.500000	4.696795  
258.000000	4.728287  
258.500000	4.718924  
259.000000	4.701204  
259.500000	4.732901  
260.000000	4.795969  
260.500000	4.865795  
261.000000	4.896590  
261.500000	4.902257  
262.000000	4.952295  
262.500000	5.051757  
263.000000	5.155484  
263.500000	5.215242  
264.000000	5.267318  
264.500000	5.301386  
265.000000	5.352893  
265.500000	5.403280  
266.000000	5.447234  
266.500000	5.429454  
267.000000	5.406196  
267.500000	5.415553  
268.000000	5.489696  
268.500000	5.509219  
269.000000	5.445689  
269.500000	5.371439  
270.000000	5.425780  
270.500000	5.546681  
271.000000	5.612151  
271.500000	5.550439  
272.000000	5.489242  
272.500000	5.510318  
273.000000	5.587348  
273.500000	5.650530  
274.000000	5.670068  
274.500000	5.683916  
275.000000	5.699098  
275.500000	5.721636  
276.000000	5.725325  
276.500000	5.705659  
277.000000	5.690818  
277.500000	5.675825  
278.000000	5.669969  
278.500000	5.671446  
279.000000	5.672416  
279.500000	5.637643  
280.000000	5.584969  
280.500000	5.538924  
281.000000	5.504083  
281.500000	5.473545  
282.000000	5.457765  
282.500000	5.474825  
283.000000	5.519045  
283.500000	5.534621  
284.000000	5.520166  
284.500000	5.470681  
285.000000	5.440454  
285.500000	5.408196  
286.000000	5.372401  
286.500000	5.330734  
287.000000	5.319795  
287.500000	5.326924  
288.000000	5.331098  
288.500000	5.317325  
289.000000	5.328840  
289.500000	5.345886  
290.000000	5.359522  
290.500000	5.340628  
291.000000	5.345871  
291.500000	5.390348  
292.000000	5.471795  
292.500000	5.503628  
293.000000	5.513022  
293.500000	5.579795  
294.000000	5.724537  
294.500000	5.893022  
295.000000	6.051386  
295.500000	6.249689  
296.000000	6.499946  
296.500000	6.835265  
297.000000	7.291931  
297.500000	7.990393  
298.000000	8.986984  
298.500000	10.310818 
299.000000	11.918500 
299.500000	13.836280 
300.000000	16.085946 
300.500000	18.668492 
301.000000	21.474734 
301.500000	24.464068 
302.000000	27.632946 
302.500000	30.924575 
303.000000	34.178386 
303.500000	37.208340 
304.000000	40.052992 
304.500000	42.764416 
305.000000	45.319863 
305.500000	47.547257 
306.000000	49.362333 
306.500000	50.910431 
307.000000	52.311537 
307.500000	53.564030 
308.000000	54.457954 
308.500000	54.981250 
309.000000	55.106598 
309.500000	55.085992 
310.000000	54.940053 
310.500000	54.776984 
311.000000	54.433643 
311.500000	53.852378 
312.000000	52.979742 
312.500000	52.047659 
313.000000	51.166916 
313.500000	50.372439 
314.000000	49.513098 
314.500000	48.566022 
315.000000	47.556378 
315.500000	46.531825 
316.000000	45.561174 
316.500000	44.576151 
317.000000	43.538492 
317.500000	42.455446 
318.000000	41.520439 
318.500000	40.757666 
319.000000	40.145128 
319.500000	39.537969 
320.000000	38.911431 
320.500000	38.252037 
321.000000	37.591325 
321.500000	37.023871 
322.000000	36.526492 
322.500000	36.098401 
323.000000	35.680659 
323.500000	35.289181 
324.000000	34.995810 
324.500000	34.780090 
325.000000	34.571401 
325.500000	34.297121 
326.000000	34.084234 
326.500000	34.004598 
327.000000	34.056212 
327.500000	34.054780 
328.000000	34.010727 
328.500000	34.023962 
329.000000	34.156106 
329.500000	34.322598 
330.000000	34.495234 
330.500000	34.642901 
331.000000	34.813954 
331.500000	35.038007 
332.000000	35.362643 
332.500000	35.709750 
333.000000	35.990257 
333.500000	36.225803 
334.000000	36.490946 
334.500000	36.837227 
335.000000	37.165287 
335.500000	37.497780 
336.000000	37.825810 
336.500000	38.246242 
337.000000	38.690984 
337.500000	39.082280 
338.000000	39.322265 
338.500000	39.608045 
339.000000	40.021742 
339.500000	40.558537 
340.000000	41.018303 
340.500000	41.421727 
341.000000	41.765363 
341.500000	42.099689 
342.000000	42.413863 
342.500000	42.819212 
343.000000	43.264916 
343.500000	43.654189 
344.000000	43.915727 
344.500000	44.169553 
345.000000	44.509181 
345.500000	45.012166 
346.000000	45.506689 
346.500000	46.010287 
347.000000	46.471045 
347.500000	47.041568 
348.000000	47.566287 
348.500000	47.908689 
349.000000	48.109257 
349.500000	48.465310 
350.000000	49.039318 
350.500000	49.640871 
351.000000	50.070757 
351.500000	50.373325 
352.000000	50.634310 
352.500000	50.995810 
353.000000	51.453280 
353.500000	52.042810 
354.000000	52.570318 
354.500000	52.978318 
355.000000	53.309348 
355.500000	53.650280 
356.000000	54.058401 
356.500000	54.447765 
357.000000	54.872090 
357.500000	55.221295 
358.000000	55.574704 
358.500000	55.911560 
359.000000	56.234946 
359.500000	56.411621 
360.000000	56.611113 
360.500000	56.943992 
361.000000	57.357750 
361.500000	57.561098 
362.000000	57.546280 
362.500000	57.565772 
363.000000	57.773000 
363.500000	58.057212 
364.000000	58.187606 
364.500000	58.277340 
365.000000	58.392075 
365.500000	58.663659 
366.000000	58.838037 
366.500000	58.917674 
367.000000	58.854583 
367.500000	58.792500 
368.000000	58.654303 
368.500000	58.497174 
369.000000	58.307431 
369.500000	58.117386 
370.000000	57.975613 
370.500000	57.902787 
371.000000	57.888954 
371.500000	57.824575 
372.000000	57.650621 
372.500000	57.275598 
373.000000	56.812575 
373.500000	56.355424 
374.000000	55.983234 
374.500000	55.706583 
375.000000	55.399878 
375.500000	54.916863 
376.000000	54.230856 
376.500000	53.607053 
377.000000	53.190409 
377.500000	52.870871 
378.000000	52.443803 
378.500000	51.843060 
379.000000	51.181219 
379.500000	50.440401 
380.000000	49.812446 
380.500000	49.342378 
381.000000	49.024113 
381.500000	48.581606 
382.000000	47.994893 
382.500000	47.372106 
383.000000	46.779575 
383.500000	46.207583 
384.000000	45.625030 
384.500000	45.107848 
385.000000	44.540166 
385.500000	43.916803 
386.000000	43.278075 
386.500000	42.732015 
387.000000	42.208325 
387.500000	41.651272 
388.000000	41.057424 
388.500000	40.514212 
389.000000	40.013053 
389.500000	39.524196 
390.000000	39.024977 
390.500000	38.589833 
391.000000	38.176977 
391.500000	37.759068 
392.000000	37.260439 
392.500000	36.812363 
393.000000	36.430719 
393.500000	36.006856 
394.000000	35.395772 
394.500000	34.763833 
395.000000	34.276560 
395.500000	33.882742 
396.000000	33.393045 
396.500000	32.829727 
397.000000	32.268015 
397.500000	31.699015 
398.000000	31.056181 
398.500000	30.461651 
399.000000	29.930795 
399.500000	29.290015 
400.000000	28.420999 

