PE FL                   SPECTRUM    ASCII       PEDS        1.60        
  -1
CDSRT#53.SP
02/03/22
03:44:04.00
02/03/22
03:45:43.00


400.000000
1









LS55
450.00
5.00
5.00
SCAN
1
20
100
100
0
100
0
0
0
1
7
ON
490 450 
1 0 0
#HDR
-1
-1
#GR
NM

0.00002384185791015625
0.0
250.000000
0.500000
301
8
102.426371
6.664000
#DATA
250.000000	6.664000   
250.500000	6.711340   
251.000000	6.745295   
251.500000	6.807977   
252.000000	6.938583   
252.500000	7.098909   
253.000000	7.200446   
253.500000	7.252166   
254.000000	7.283113   
254.500000	7.297803   
255.000000	7.283212   
255.500000	7.247515   
256.000000	7.234030   
256.500000	7.252060   
257.000000	7.316931   
257.500000	7.382590   
258.000000	7.477272   
258.500000	7.552446   
259.000000	7.645363   
259.500000	7.712545   
260.000000	7.818666   
260.500000	7.948053   
261.000000	8.083363   
261.500000	8.127621   
262.000000	8.149901   
262.500000	8.159568   
263.000000	8.210416   
263.500000	8.309598   
264.000000	8.470378   
264.500000	8.610106   
265.000000	8.709090   
265.500000	8.815174   
266.000000	8.926159   
266.500000	9.013606   
267.000000	9.046348   
267.500000	9.086787   
268.000000	9.115204   
268.500000	9.157924   
269.000000	9.200507   
269.500000	9.288416   
270.000000	9.385704   
270.500000	9.496946   
271.000000	9.571886   
271.500000	9.593249   
272.000000	9.591727   
272.500000	9.584969   
273.000000	9.610583   
273.500000	9.628121   
274.000000	9.693522   
274.500000	9.693977   
275.000000	9.636242   
275.500000	9.550249   
276.000000	9.582136   
276.500000	9.633643   
277.000000	9.645749   
277.500000	9.571651   
278.000000	9.509613   
278.500000	9.458530   
279.000000	9.426818   
279.500000	9.372159   
280.000000	9.344249   
280.500000	9.297689   
281.000000	9.248484   
281.500000	9.216537   
282.000000	9.226780   
282.500000	9.235068   
283.000000	9.207795   
283.500000	9.138106   
284.000000	9.097568   
284.500000	9.043500   
285.000000	8.964742   
285.500000	8.876000   
286.000000	8.864772   
286.500000	8.881075   
287.000000	8.910659   
287.500000	8.870083   
288.000000	8.818348   
288.500000	8.727151   
289.000000	8.646484   
289.500000	8.603401   
290.000000	8.625189   
290.500000	8.587772   
291.000000	8.516242   
291.500000	8.443098   
292.000000	8.488363   
292.500000	8.584181   
293.000000	8.709560   
293.500000	8.844416   
294.000000	9.005787   
294.500000	9.214749   
295.000000	9.514174   
295.500000	9.924196   
296.000000	10.422136  
296.500000	11.033613  
297.000000	11.764128  
297.500000	12.659159  
298.000000	13.690060  
298.500000	14.838856  
299.000000	16.072469  
299.500000	17.407378  
300.000000	18.951681  
300.500000	20.671530  
301.000000	22.385113  
301.500000	23.938901  
302.000000	25.386227  
302.500000	26.832651  
303.000000	28.176386  
303.500000	29.375515  
304.000000	30.459090  
304.500000	31.599196  
305.000000	32.668378  
305.500000	33.592651  
306.000000	34.323053  
306.500000	35.031909  
307.000000	35.728318  
307.500000	36.258765  
308.000000	36.660727  
308.500000	37.092356  
309.000000	37.632219  
309.500000	38.159977  
310.000000	38.550651  
310.500000	38.901606  
311.000000	39.268257  
311.500000	39.634553  
312.000000	39.906537  
312.500000	40.182174  
313.000000	40.475053  
313.500000	40.797409  
314.000000	41.098681  
314.500000	41.325204  
315.000000	41.581166  
315.500000	41.886575  
316.000000	42.165068  
316.500000	42.387719  
317.000000	42.683121  
317.500000	43.105469  
318.000000	43.568136  
318.500000	43.938431  
319.000000	44.304053  
319.500000	44.734037  
320.000000	45.165606  
320.500000	45.433416  
321.000000	45.754749  
321.500000	46.150257  
322.000000	46.579833  
322.500000	46.908022  
323.000000	47.288000  
323.500000	47.755643  
324.000000	48.269651  
324.500000	48.672795  
325.000000	49.096053  
325.500000	49.590575  
326.000000	50.103113  
326.500000	50.607666  
327.000000	51.117378  
327.500000	51.695787  
328.000000	52.319393  
328.500000	52.952643  
329.000000	53.572909  
329.500000	54.188765  
330.000000	54.718621  
330.500000	55.184568  
331.000000	55.715015  
331.500000	56.404613  
332.000000	57.235053  
332.500000	58.026303  
333.000000	58.701083  
333.500000	59.355522  
334.000000	60.009886  
334.500000	60.729045  
335.000000	61.498204  
335.500000	62.401583  
336.000000	63.275712  
336.500000	64.005007  
337.000000	64.608727  
337.500000	65.228765  
338.000000	65.931356  
338.500000	66.596886  
339.000000	67.271893  
339.500000	67.907719  
340.000000	68.617234  
340.500000	69.355803  
341.000000	70.183651  
341.500000	71.066060  
342.000000	71.945242  
342.500000	72.871749  
343.000000	73.774431  
343.500000	74.688575  
344.000000	75.425636  
344.500000	76.088204  
345.000000	76.646734  
345.500000	77.302568  
346.000000	78.132628  
346.500000	79.172704  
347.000000	80.214636  
347.500000	81.073492  
348.000000	81.821522  
348.500000	82.585742  
349.000000	83.450742  
349.500000	84.240643  
350.000000	84.966401  
350.500000	85.670643  
351.000000	86.477522  
351.500000	87.352340  
352.000000	88.204674  
352.500000	88.912507  
353.000000	89.622825  
353.500000	90.416515  
354.000000	91.322189  
354.500000	92.178795  
355.000000	92.911909  
355.500000	93.538484  
356.000000	94.187151  
356.500000	94.906886  
357.000000	95.592977  
357.500000	96.307681  
358.000000	97.036560  
358.500000	97.795522  
359.000000	98.355992  
359.500000	98.785825  
360.000000	99.212393  
360.500000	99.740643  
361.000000	100.253606 
361.500000	100.635287 
362.000000	100.827484 
362.500000	100.985651 
363.000000	101.346234 
363.500000	101.770795 
364.000000	101.992825 
364.500000	102.058977 
365.000000	102.147151 
365.500000	102.361939 
366.000000	102.426371 
366.500000	102.348712 
367.000000	102.259818 
367.500000	102.253219 
368.000000	102.210863 
368.500000	102.156106 
369.000000	102.018765 
369.500000	101.835840 
370.000000	101.631053 
370.500000	101.367500 
371.000000	100.965772 
371.500000	100.432348 
372.000000	99.840022  
372.500000	99.299613  
373.000000	98.812265  
373.500000	98.371749  
374.000000	97.893492  
374.500000	97.295984  
375.000000	96.661696  
375.500000	96.033090  
376.000000	95.371462  
376.500000	94.685946  
377.000000	93.901007  
377.500000	93.110462  
378.000000	92.282545  
378.500000	91.641727  
379.000000	90.970674  
379.500000	90.198068  
380.000000	89.132575  
380.500000	88.108704  
381.000000	87.130068  
381.500000	86.248621  
382.000000	85.348848  
382.500000	84.508106  
383.000000	83.697992  
383.500000	82.912780  
384.000000	82.104636  
384.500000	81.254871  
385.000000	80.410280  
385.500000	79.524689  
386.000000	78.663075  
386.500000	77.717749  
387.000000	76.706674  
387.500000	75.556598  
388.000000	74.541500  
388.500000	73.657280  
389.000000	72.899515  
389.500000	72.086242  
390.000000	71.285734  
390.500000	70.405287  
391.000000	69.430931  
391.500000	68.481613  
392.000000	67.650810  
392.500000	66.828462  
393.000000	65.874628  
393.500000	64.931500  
394.000000	64.034916  
394.500000	63.102340  
395.000000	62.007901  
395.500000	60.928856  
396.000000	59.951106  
396.500000	59.115174  
397.000000	58.300196  
397.500000	57.453954  
398.000000	56.533712  
398.500000	55.531484  
399.000000	54.472530  
399.500000	53.457106  
400.000000	52.490999  

