PE FL                   SPECTRUM    ASCII       PEDS        1.60        
  -1
CDSRT#52.SP
02/03/22
03:41:41.00
02/03/22
03:43:45.00


450.000000
1









LS55
490.00
5.00
5.00
SCAN
1
20
100
100
0
100
0
0
0
1
7
ON
520 480 
1 0 0
#HDR
-1
-1
#GR
NM

0.00002384185791015625
0.0
270.000000
0.500000
361
8
131.043909
9.607969
#DATA
270.000000	10.346000  
270.500000	10.408151  
271.000000	10.468113  
271.500000	10.487439  
272.000000	10.499007  
272.500000	10.496007  
273.000000	10.497477  
273.500000	10.493916  
274.000000	10.526121  
274.500000	10.550681  
275.000000	10.525098  
275.500000	10.497833  
276.000000	10.503250  
276.500000	10.536257  
277.000000	10.507621  
277.500000	10.437189  
278.000000	10.399946  
278.500000	10.367500  
279.000000	10.358628  
279.500000	10.291545  
280.000000	10.215143  
280.500000	10.102340  
281.000000	10.103742  
281.500000	10.126916  
282.000000	10.108977  
282.500000	10.008530  
283.000000	9.915007   
283.500000	9.873583   
284.000000	9.849106   
284.500000	9.853272   
285.000000	9.819999   
285.500000	9.790749   
286.000000	9.733159   
286.500000	9.689454   
287.000000	9.637909   
287.500000	9.636833   
288.000000	9.675318   
288.500000	9.686500   
289.000000	9.634272   
289.500000	9.607969   
290.000000	9.651787   
290.500000	9.687454   
291.000000	9.689651   
291.500000	9.696204   
292.000000	9.808227   
292.500000	9.973356   
293.000000	10.182628  
293.500000	10.379719  
294.000000	10.579416  
294.500000	10.814318  
295.000000	11.231856  
295.500000	11.888863  
296.000000	12.711674  
296.500000	13.554583  
297.000000	14.451977  
297.500000	15.615583  
298.000000	17.110507  
298.500000	18.792553  
299.000000	20.602780  
299.500000	22.578143  
300.000000	24.798962  
300.500000	27.098250  
301.000000	29.406196  
301.500000	31.640439  
302.000000	33.916280  
302.500000	36.180068  
303.000000	38.321136  
303.500000	40.163143  
304.000000	41.717856  
304.500000	43.190628  
305.000000	44.622325  
305.500000	45.922409  
306.000000	47.019431  
306.500000	48.038053  
307.000000	49.025628  
307.500000	49.903818  
308.000000	50.727295  
308.500000	51.522924  
309.000000	52.286242  
309.500000	52.854545  
310.000000	53.359227  
310.500000	53.805946  
311.000000	54.231295  
311.500000	54.602886  
312.000000	55.143750  
312.500000	55.853219  
313.000000	56.439689  
313.500000	56.690234  
314.000000	56.770242  
314.500000	57.027348  
315.000000	57.522545  
315.500000	58.186848  
316.000000	58.796909  
316.500000	59.279651  
317.000000	59.677363  
317.500000	60.041954  
318.000000	60.383772  
318.500000	60.650037  
319.000000	60.969106  
319.500000	61.375196  
320.000000	61.808613  
320.500000	62.256469  
321.000000	62.734257  
321.500000	63.262780  
322.000000	63.640068  
322.500000	63.926939  
323.000000	64.333734  
323.500000	65.012545  
324.000000	65.636166  
324.500000	66.054166  
325.000000	66.402916  
325.500000	66.877136  
326.000000	67.312477  
326.500000	67.644424  
327.000000	68.017446  
327.500000	68.688893  
328.000000	69.372492  
328.500000	69.948030  
329.000000	70.293924  
329.500000	70.721757  
330.000000	71.319340  
330.500000	72.059310  
331.000000	72.746848  
331.500000	73.436015  
332.000000	74.211053  
332.500000	75.005053  
333.000000	75.650659  
333.500000	76.189659  
334.000000	76.820878  
334.500000	77.637075  
335.000000	78.434371  
335.500000	79.181045  
336.000000	79.846159  
336.500000	80.678143  
337.000000	81.537068  
337.500000	82.365803  
338.000000	83.144166  
338.500000	83.954469  
339.000000	84.747560  
339.500000	85.482643  
340.000000	86.266613  
340.500000	87.096719  
341.000000	87.962734  
341.500000	88.749871  
342.000000	89.550106  
342.500000	90.338500  
343.000000	91.248977  
343.500000	92.238727  
344.000000	93.252712  
344.500000	94.141749  
345.000000	94.922128  
345.500000	95.724219  
346.000000	96.703075  
346.500000	97.741469  
347.000000	98.567939  
347.500000	99.183659  
348.000000	99.875643  
348.500000	100.820075 
349.000000	101.904946 
349.500000	102.915136 
350.000000	103.754803 
350.500000	104.594772 
351.000000	105.466060 
351.500000	106.423030 
352.000000	107.385166 
352.500000	108.367613 
353.000000	109.313378 
353.500000	110.240272 
354.000000	111.057045 
354.500000	111.939946 
355.000000	113.009310 
355.500000	114.166219 
356.000000	115.207234 
356.500000	116.091840 
357.000000	116.973689 
357.500000	118.027174 
358.000000	119.092075 
358.500000	120.126727 
359.000000	121.205189 
359.500000	122.338159 
360.000000	123.372909 
360.500000	124.280068 
361.000000	125.239719 
361.500000	126.185265 
362.000000	126.932484 
362.500000	127.547946 
363.000000	128.231613 
363.500000	128.787250 
364.000000	129.107871 
364.500000	129.333643 
365.000000	129.781106 
365.500000	130.284098 
366.000000	130.692363 
366.500000	130.910356 
367.000000	131.017962 
367.500000	130.949204 
368.000000	130.902431 
368.500000	131.002507 
369.000000	131.043909 
369.500000	130.924500 
370.000000	130.737022 
370.500000	130.742378 
371.000000	130.741795 
371.500000	130.680075 
372.000000	130.406704 
372.500000	130.236143 
373.000000	130.036916 
373.500000	129.825295 
374.000000	129.453469 
374.500000	129.095333 
375.000000	128.579878 
375.500000	127.930643 
376.000000	127.144893 
376.500000	126.370643 
377.000000	125.702583 
377.500000	125.037727 
378.000000	124.475621 
378.500000	123.902022 
379.000000	123.225946 
379.500000	122.339848 
380.000000	121.494204 
380.500000	120.711962 
381.000000	119.921189 
381.500000	118.953772 
382.000000	118.082386 
382.500000	117.243007 
383.000000	116.354159 
383.500000	115.227787 
384.000000	114.151719 
384.500000	113.106477 
385.000000	112.109901 
385.500000	110.940363 
386.000000	109.693825 
386.500000	108.370234 
387.000000	107.138401 
387.500000	106.063568 
388.000000	105.021651 
388.500000	103.801674 
389.000000	102.478863 
389.500000	101.115545 
390.000000	99.886181  
390.500000	98.683295  
391.000000	97.611984  
391.500000	96.513075  
392.000000	95.444439  
392.500000	94.127696  
393.000000	92.685575  
393.500000	91.160659  
394.000000	89.790469  
394.500000	88.424977  
395.000000	87.009454  
395.500000	85.640954  
396.000000	84.375810  
396.500000	83.070340  
397.000000	81.568037  
397.500000	80.090371  
398.000000	78.798560  
398.500000	77.601477  
399.000000	76.371810  
399.500000	75.167113  
400.000000	73.962204  
400.500000	72.629227  
401.000000	71.192477  
401.500000	69.796901  
402.000000	68.638795  
402.500000	67.529068  
403.000000	66.427128  
403.500000	65.192575  
404.000000	64.054909  
404.500000	62.984901  
405.000000	61.976022  
405.500000	60.838083  
406.000000	59.761878  
406.500000	58.848340  
407.000000	58.035666  
407.500000	57.101704  
408.000000	56.018689  
408.500000	54.952909  
409.000000	53.998598  
409.500000	52.960810  
410.000000	51.799810  
410.500000	50.553136  
411.000000	49.538348  
411.500000	48.703318  
412.000000	47.937037  
412.500000	47.105568  
413.000000	46.303143  
413.500000	45.458727  
414.000000	44.522901  
414.500000	43.582477  
415.000000	42.777098  
415.500000	42.187310  
416.000000	41.676560  
416.500000	41.170166  
417.000000	40.562348  
417.500000	39.885371  
418.000000	39.152651  
418.500000	38.489363  
419.000000	37.964272  
419.500000	37.544484  
420.000000	37.150757  
420.500000	36.657196  
421.000000	36.140174  
421.500000	35.701537  
422.000000	35.321666  
422.500000	34.872378  
423.000000	34.362212  
423.500000	33.899727  
424.000000	33.549318  
424.500000	33.240840  
425.000000	32.936560  
425.500000	32.628303  
426.000000	32.334196  
426.500000	31.987696  
427.000000	31.617696  
427.500000	31.177265  
428.000000	30.788909  
428.500000	30.430348  
429.000000	30.106878  
429.500000	29.747053  
430.000000	29.415954  
430.500000	29.085962  
431.000000	28.713393  
431.500000	28.219515  
432.000000	27.801128  
432.500000	27.570621  
433.000000	27.475219  
433.500000	27.291386  
434.000000	26.984643  
434.500000	26.625780  
435.000000	26.342924  
435.500000	26.092530  
436.000000	25.808734  
436.500000	25.495325  
437.000000	25.257659  
437.500000	25.091848  
438.000000	24.862507  
438.500000	24.525643  
439.000000	24.261000  
439.500000	24.107416  
440.000000	23.979318  
440.500000	23.742825  
441.000000	23.533643  
441.500000	23.366424  
442.000000	23.168765  
442.500000	22.844348  
443.000000	22.521492  
443.500000	22.268371  
444.000000	22.100287  
444.500000	21.966712  
445.000000	21.852454  
445.500000	21.730984  
446.000000	21.572113  
446.500000	21.348424  
447.000000	21.150946  
447.500000	21.004613  
448.000000	20.931750  
448.500000	20.862651  
449.000000	20.791439  
449.500000	20.717212  
450.000000	20.661000  

