PE FL                   SPECTRUM    ASCII       PEDS        1.60        
  -1
CDSRT#55.SP
02/03/22
03:48:23.00
02/03/22
03:51:03.00


650.000000
1









LS55
365.00
5.00
5.00
SCAN
1
20
100
100
0
100
0
1
0
1
7
ON
420 400 
1 0 0
#HDR
-1
-1
#GR
NM

0.00002384185791015625
0.0
390.000000
0.500000
521
8
147.927734
10.273000
#DATA
390.000000	10.273000  
390.500000	11.175681  
391.000000	11.828045  
391.500000	12.265886  
392.000000	12.690507  
392.500000	13.185287  
393.000000	13.664606  
393.500000	14.071803  
394.000000	14.523015  
394.500000	15.015553  
395.000000	15.595681  
395.500000	16.156227  
396.000000	16.785075  
396.500000	17.371250  
397.000000	17.946257  
397.500000	18.488871  
398.000000	19.099674  
398.500000	19.742757  
399.000000	20.344424  
399.500000	20.966257  
400.000000	21.623924  
400.500000	22.356954  
401.000000	23.033022  
401.500000	23.718704  
402.000000	24.379856  
402.500000	25.090439  
403.000000	25.799598  
403.500000	26.548212  
404.000000	27.302424  
404.500000	28.107750  
405.000000	28.891371  
405.500000	29.664712  
406.000000	30.430310  
406.500000	31.162303  
407.000000	31.869636  
407.500000	32.591227  
408.000000	33.428143  
408.500000	34.351204  
409.000000	35.223030  
409.500000	35.952909  
410.000000	36.650643  
410.500000	37.450386  
411.000000	38.329878  
411.500000	39.295424  
412.000000	40.185212  
412.500000	41.039606  
413.000000	41.795734  
413.500000	42.657840  
414.000000	43.572553  
414.500000	44.561340  
415.000000	45.467022  
415.500000	46.348931  
416.000000	47.087462  
416.500000	47.920621  
417.000000	48.905537  
417.500000	50.193469  
418.000000	51.407871  
418.500000	52.411136  
419.000000	53.094310  
419.500000	53.836242  
420.000000	54.821219  
420.500000	56.130871  
421.000000	57.370833  
421.500000	58.342674  
422.000000	59.242909  
422.500000	60.295363  
423.000000	61.431999  
423.500000	62.468303  
424.000000	63.367106  
424.500000	64.326992  
425.000000	65.388045  
425.500000	66.488348  
426.000000	67.434143  
426.500000	68.259469  
427.000000	69.066909  
427.500000	70.070219  
428.000000	71.039833  
428.500000	71.878356  
429.000000	72.718234  
429.500000	73.809121  
430.000000	75.008939  
430.500000	76.063446  
431.000000	76.940598  
431.500000	77.879659  
432.000000	78.775909  
432.500000	79.563431  
433.000000	80.345151  
433.500000	81.345939  
434.000000	82.401719  
434.500000	83.375166  
435.000000	84.270568  
435.500000	85.163878  
436.000000	86.072250  
436.500000	86.923333  
437.000000	87.743916  
437.500000	88.438825  
438.000000	89.035878  
438.500000	89.677856  
439.000000	90.502757  
439.500000	91.502015  
440.000000	92.390416  
440.500000	93.191628  
441.000000	93.842568  
441.500000	94.561712  
442.000000	95.243492  
442.500000	95.898954  
443.000000	96.496462  
443.500000	97.134659  
444.000000	97.725818  
444.500000	98.343219  
445.000000	99.018901  
445.500000	99.715606  
446.000000	100.277977 
446.500000	100.735803 
447.000000	101.209515 
447.500000	101.771621 
448.000000	102.290204 
448.500000	102.792719 
449.000000	103.286757 
449.500000	103.759962 
450.000000	104.182696 
450.500000	104.593151 
451.000000	104.926537 
451.500000	105.157371 
452.000000	105.364181 
452.500000	105.757454 
453.000000	106.228651 
453.500000	106.692924 
454.000000	107.150803 
454.500000	107.612333 
455.000000	107.993696 
455.500000	108.376712 
456.000000	108.842916 
456.500000	109.305272 
457.000000	109.630212 
457.500000	109.746924 
458.000000	109.978030 
458.500000	110.343795 
459.000000	110.825196 
459.500000	111.300295 
460.000000	111.837303 
460.500000	112.272522 
461.000000	112.583613 
461.500000	112.682196 
462.000000	112.846090 
462.500000	113.192681 
463.000000	113.584515 
463.500000	113.853659 
464.000000	113.977325 
464.500000	114.109454 
465.000000	114.365143 
465.500000	114.825401 
466.000000	115.427939 
466.500000	116.038787 
467.000000	116.437742 
467.500000	116.669780 
468.000000	116.954742 
468.500000	117.379037 
469.000000	117.865575 
469.500000	118.320257 
470.000000	118.665250 
470.500000	119.177068 
471.000000	119.732393 
471.500000	120.394113 
472.000000	120.850909 
472.500000	121.215636 
473.000000	121.481545 
473.500000	121.925780 
474.000000	122.345628 
474.500000	122.810143 
475.000000	123.348159 
475.500000	123.983446 
476.000000	124.574462 
476.500000	124.964121 
477.000000	125.268545 
477.500000	125.681409 
478.000000	126.149825 
478.500000	126.664772 
479.000000	127.204825 
479.500000	127.888053 
480.000000	128.567825 
480.500000	129.262530 
481.000000	129.666962 
481.500000	129.938643 
482.000000	130.163863 
482.500000	130.670606 
483.000000	131.403219 
483.500000	132.060219 
484.000000	132.596166 
484.500000	133.070196 
485.000000	133.755590 
485.500000	134.406553 
486.000000	135.068181 
486.500000	135.597166 
487.000000	136.088439 
487.500000	136.422598 
488.000000	136.820431 
488.500000	137.449189 
489.000000	138.196477 
489.500000	138.905477 
490.000000	139.547287 
490.500000	140.218045 
491.000000	140.808348 
491.500000	141.149712 
492.000000	141.541560 
492.500000	142.068666 
493.000000	142.569750 
493.500000	142.772689 
494.000000	142.952878 
494.500000	143.305651 
495.000000	143.733848 
495.500000	143.874371 
496.000000	143.828537 
496.500000	144.003060 
497.000000	144.251121 
497.500000	144.533128 
498.000000	144.653840 
498.500000	144.725378 
499.000000	144.779916 
499.500000	144.914962 
500.000000	145.084628 
500.500000	145.275189 
501.000000	145.433537 
501.500000	145.541015 
502.000000	145.851469 
502.500000	146.229636 
503.000000	146.487121 
503.500000	146.575287 
504.000000	146.658393 
504.500000	146.699568 
505.000000	146.704060 
505.500000	146.663174 
506.000000	146.895946 
506.500000	147.231803 
507.000000	147.490727 
507.500000	147.536242 
508.000000	147.595530 
508.500000	147.541742 
509.000000	147.446734 
509.500000	147.539022 
510.000000	147.735492 
510.500000	147.927734 
511.000000	147.895371 
511.500000	147.898810 
512.000000	147.860689 
512.500000	147.814719 
513.000000	147.777613 
513.500000	147.746795 
514.000000	147.654681 
514.500000	147.460507 
515.000000	147.255363 
515.500000	147.073886 
516.000000	146.847651 
516.500000	146.730606 
517.000000	146.750356 
517.500000	146.849265 
518.000000	146.711803 
518.500000	146.714825 
519.000000	146.623287 
519.500000	146.483159 
520.000000	146.076053 
520.500000	145.782500 
521.000000	145.620469 
521.500000	145.450780 
522.000000	145.198628 
522.500000	145.020121 
523.000000	144.998356 
523.500000	144.836939 
524.000000	144.670962 
524.500000	144.417393 
525.000000	144.215924 
525.500000	143.769143 
526.000000	143.451545 
526.500000	143.401522 
527.000000	143.585075 
527.500000	143.531000 
528.000000	143.134234 
528.500000	142.495939 
529.000000	141.981454 
529.500000	141.687265 
530.000000	141.608371 
530.500000	141.443037 
531.000000	141.043583 
531.500000	140.545719 
532.000000	140.334030 
532.500000	140.391909 
533.000000	140.340363 
533.500000	139.937136 
534.000000	139.382750 
534.500000	138.976704 
535.000000	138.649340 
535.500000	138.254727 
536.000000	137.810000 
536.500000	137.491545 
537.000000	137.216606 
537.500000	136.779462 
538.000000	136.303196 
538.500000	136.128515 
539.000000	136.143575 
539.500000	135.963848 
540.000000	135.293871 
540.500000	134.623674 
541.000000	134.203022 
541.500000	134.017068 
542.000000	133.611878 
542.500000	133.236507 
543.000000	133.002742 
543.500000	132.809621 
544.000000	132.321068 
544.500000	131.709272 
545.000000	131.277787 
545.500000	131.040530 
546.000000	130.743727 
546.500000	130.358022 
547.000000	129.956045 
547.500000	129.682871 
548.000000	129.330780 
548.500000	128.948780 
549.000000	128.514628 
549.500000	128.307174 
550.000000	127.995704 
550.500000	127.481265 
551.000000	126.702295 
551.500000	126.066909 
552.000000	125.667825 
552.500000	125.315583 
553.000000	124.997015 
553.500000	124.631295 
554.000000	124.405666 
554.500000	124.069818 
555.000000	123.653772 
555.500000	122.994795 
556.000000	122.613431 
556.500000	122.430287 
557.000000	122.325750 
557.500000	121.894363 
558.000000	121.181628 
558.500000	120.431106 
559.000000	119.971727 
559.500000	119.734787 
560.000000	119.453856 
560.500000	119.007590 
561.000000	118.565348 
561.500000	118.274848 
562.000000	117.936553 
562.500000	117.380053 
563.000000	116.804992 
563.500000	116.353780 
564.000000	115.877265 
564.500000	115.390515 
565.000000	115.043689 
565.500000	114.849204 
566.000000	114.523136 
566.500000	114.055553 
567.000000	113.545007 
567.500000	113.153159 
568.000000	112.622507 
568.500000	112.126537 
569.000000	111.662166 
569.500000	111.349446 
570.000000	110.971340 
570.500000	110.446227 
571.000000	109.786840 
571.500000	109.142439 
572.000000	108.732984 
572.500000	108.482750 
573.000000	108.306689 
573.500000	107.974916 
574.000000	107.566689 
574.500000	107.022886 
575.000000	106.471939 
575.500000	106.016765 
576.000000	105.689439 
576.500000	105.313431 
577.000000	104.772856 
577.500000	104.232166 
578.000000	103.912378 
578.500000	103.651484 
579.000000	103.288772 
579.500000	102.769977 
580.000000	102.300825 
580.500000	101.807560 
581.000000	101.330431 
581.500000	100.933810 
582.000000	100.677196 
582.500000	100.315916 
583.000000	99.814583  
583.500000	99.233946  
584.000000	98.757583  
584.500000	98.507484  
585.000000	98.287000  
585.500000	98.051560  
586.000000	97.590689  
586.500000	96.992166  
587.000000	96.380969  
587.500000	95.996371  
588.000000	95.664840  
588.500000	95.211719  
589.000000	94.543045  
589.500000	94.003159  
590.000000	93.708765  
590.500000	93.453121  
591.000000	92.963537  
591.500000	92.399075  
592.000000	91.914318  
592.500000	91.547196  
593.000000	91.109606  
593.500000	90.705386  
594.000000	90.380166  
594.500000	90.166060  
595.000000	89.892462  
595.500000	89.578257  
596.000000	89.149393  
596.500000	88.682174  
597.000000	88.106787  
597.500000	87.486878  
598.000000	86.824924  
598.500000	86.312727  
599.000000	85.886030  
599.500000	85.557560  
600.000000	85.202007  
600.500000	84.959696  
601.000000	84.618666  
601.500000	84.175363  
602.000000	83.636113  
602.500000	83.166409  
603.000000	82.634181  
603.500000	82.229810  
604.000000	81.964196  
604.500000	81.720871  
605.000000	81.165848  
605.500000	80.423704  
606.000000	79.832174  
606.500000	79.597545  
607.000000	79.360795  
607.500000	78.968265  
608.000000	78.367371  
608.500000	77.886598  
609.000000	77.491007  
609.500000	77.111893  
610.000000	76.644446  
610.500000	76.276962  
611.000000	75.846030  
611.500000	75.338704  
612.000000	74.710075  
612.500000	74.212181  
613.000000	73.781856  
613.500000	73.448007  
614.000000	73.072022  
614.500000	72.703621  
615.000000	72.229507  
615.500000	71.809962  
616.000000	71.428909  
616.500000	71.141863  
617.000000	70.801022  
617.500000	70.351068  
618.000000	69.730227  
618.500000	69.064719  
619.000000	68.555446  
619.500000	68.224689  
620.000000	67.978181  
620.500000	67.662901  
621.000000	67.265886  
621.500000	66.767500  
622.000000	66.287272  
622.500000	65.873303  
623.000000	65.568719  
623.500000	65.299765  
624.000000	64.980924  
624.500000	64.466136  
625.000000	63.859295  
625.500000	63.301909  
626.000000	62.928727  
626.500000	62.614136  
627.000000	62.284280  
627.500000	61.882121  
628.000000	61.404590  
628.500000	60.878136  
629.000000	60.365212  
629.500000	59.917712  
630.000000	59.380037  
630.500000	58.852946  
631.000000	58.352037  
631.500000	57.974643  
632.000000	57.559128  
632.500000	57.141265  
633.000000	56.689757  
633.500000	56.344257  
634.000000	56.022348  
634.500000	55.685257  
635.000000	55.249666  
635.500000	54.728984  
636.000000	54.230136  
636.500000	53.799333  
637.000000	53.417219  
637.500000	53.015499  
638.000000	52.567492  
638.500000	52.098257  
639.000000	51.674053  
639.500000	51.350909  
640.000000	50.957166  
640.500000	50.465409  
641.000000	49.928545  
641.500000	49.521840  
642.000000	49.242931  
642.500000	49.035477  
643.000000	48.725333  
643.500000	48.332393  
644.000000	47.877000  
644.500000	47.484780  
645.000000	47.080537  
645.500000	46.651386  
646.000000	46.197454  
646.500000	45.872689  
647.000000	45.587234  
647.500000	45.212272  
648.000000	44.724749  
648.500000	44.245856  
649.000000	43.851825  
649.500000	43.399272  
650.000000	42.822999  

