PE FL                   SPECTRUM    ASCII       PEDS        1.60        
  -1
CDSRT#56.SP
02/03/22
03:51:21.00
02/03/22
03:54:10.00


600.000000
1









LS55
310.00
5.00
5.00
SCAN
1
20
100
100
0
100
0
1
0
1
7
ON
650 365 
1 0 0
#HDR
-1
-1
#GR
NM

0.00002384185791015625
0.0
340.000000
0.500000
521
8
69.665568
1.022000
#DATA
340.000000	1.022000  
340.500000	1.105030  
341.000000	1.145068  
341.500000	1.154227  
342.000000	1.166371  
342.500000	1.193333  
343.000000	1.213825  
343.500000	1.225121  
344.000000	1.237621  
344.500000	1.258484  
345.000000	1.291772  
345.500000	1.329401  
346.000000	1.379022  
346.500000	1.430083  
347.000000	1.461818  
347.500000	1.447393  
348.000000	1.415969  
348.500000	1.408363  
349.000000	1.431530  
349.500000	1.481977  
350.000000	1.530787  
350.500000	1.584378  
351.000000	1.612681  
351.500000	1.633318  
352.000000	1.645863  
352.500000	1.683121  
353.000000	1.718348  
353.500000	1.753916  
354.000000	1.765250  
354.500000	1.771287  
355.000000	1.796765  
355.500000	1.849848  
356.000000	1.904659  
356.500000	1.924340  
357.000000	1.915242  
357.500000	1.903060  
358.000000	1.937287  
358.500000	1.997643  
359.000000	2.049833  
359.500000	2.076121  
360.000000	2.108227  
360.500000	2.158818  
361.000000	2.191840  
361.500000	2.193250  
362.000000	2.182143  
362.500000	2.207742  
363.000000	2.274651  
363.500000	2.349204  
364.000000	2.403431  
364.500000	2.431530  
365.000000	2.455856  
365.500000	2.491810  
366.000000	2.528242  
366.500000	2.564393  
367.000000	2.593250  
367.500000	2.622393  
368.000000	2.652280  
368.500000	2.711681  
369.000000	2.778128  
369.500000	2.850128  
370.000000	2.915439  
370.500000	2.974265  
371.000000	3.025416  
371.500000	3.059303  
372.000000	3.100303  
372.500000	3.168598  
373.000000	3.273545  
373.500000	3.382136  
374.000000	3.480363  
374.500000	3.542757  
375.000000	3.585484  
375.500000	3.635378  
376.000000	3.729196  
376.500000	3.845431  
377.000000	3.950795  
377.500000	4.022696  
378.000000	4.112954  
378.500000	4.234613  
379.000000	4.383272  
379.500000	4.496992  
380.000000	4.598098  
380.500000	4.698931  
381.000000	4.841363  
381.500000	4.973840  
382.000000	5.092409  
382.500000	5.163416  
383.000000	5.278159  
383.500000	5.453977  
384.000000	5.689287  
384.500000	5.891287  
385.000000	6.015833  
385.500000	6.100575  
386.000000	6.208242  
386.500000	6.370401  
387.000000	6.558272  
387.500000	6.787136  
388.000000	7.002871  
388.500000	7.211098  
389.000000	7.347954  
389.500000	7.492348  
390.000000	7.665477  
390.500000	7.888181  
391.000000	8.067053  
391.500000	8.253856  
392.000000	8.431022  
392.500000	8.651060  
393.000000	8.825159  
393.500000	8.975689  
394.000000	9.117924  
394.500000	9.338060  
395.000000	9.596454  
395.500000	9.869212  
396.000000	10.088931 
396.500000	10.283310 
397.000000	10.458568 
397.500000	10.614212 
398.000000	10.756136 
398.500000	10.912015 
399.000000	11.105439 
399.500000	11.335704 
400.000000	11.572901 
400.500000	11.790893 
401.000000	11.966674 
401.500000	12.134227 
402.000000	12.352734 
402.500000	12.660196 
403.000000	12.958212 
403.500000	13.185742 
404.000000	13.330992 
404.500000	13.495053 
405.000000	13.689393 
405.500000	13.956015 
406.000000	14.233098 
406.500000	14.503439 
407.000000	14.675431 
407.500000	14.823984 
408.000000	15.026477 
408.500000	15.360613 
409.000000	15.701666 
409.500000	15.966401 
410.000000	16.121977 
410.500000	16.297462 
411.000000	16.543530 
411.500000	16.835030 
412.000000	17.084068 
412.500000	17.279742 
413.000000	17.491553 
413.500000	17.825628 
414.000000	18.262439 
414.500000	18.684401 
415.000000	18.968575 
415.500000	19.151424 
416.000000	19.355022 
416.500000	19.650128 
417.000000	19.921886 
417.500000	20.172575 
418.000000	20.463333 
418.500000	20.926946 
419.000000	21.470878 
419.500000	21.909992 
420.000000	22.142606 
420.500000	22.357560 
421.000000	22.720060 
421.500000	23.143416 
422.000000	23.475931 
422.500000	23.669363 
423.000000	23.946500 
423.500000	24.340143 
424.000000	24.789984 
424.500000	25.105439 
425.000000	25.404780 
425.500000	25.737409 
426.000000	26.136750 
426.500000	26.500424 
427.000000	26.812303 
427.500000	27.106666 
428.000000	27.426325 
428.500000	27.777871 
429.000000	28.150128 
429.500000	28.554416 
430.000000	28.928068 
430.500000	29.288727 
431.000000	29.658924 
431.500000	30.043696 
432.000000	30.386765 
432.500000	30.739242 
433.000000	31.013568 
433.500000	31.237734 
434.000000	31.468946 
434.500000	31.883212 
435.000000	32.370757 
435.500000	32.837022 
436.000000	33.148348 
436.500000	33.404727 
437.000000	33.622893 
437.500000	33.880537 
438.000000	34.190749 
438.500000	34.560583 
439.000000	34.910022 
439.500000	35.208765 
440.000000	35.516749 
440.500000	35.796878 
441.000000	36.091037 
441.500000	36.366189 
442.000000	36.678939 
442.500000	36.985295 
443.000000	37.322007 
443.500000	37.622560 
444.000000	37.911401 
444.500000	38.132613 
445.000000	38.345416 
445.500000	38.547348 
446.000000	38.817750 
446.500000	39.076090 
447.000000	39.352886 
447.500000	39.570098 
448.000000	39.872083 
448.500000	40.168757 
449.000000	40.490446 
449.500000	40.700666 
450.000000	40.969840 
450.500000	41.249787 
451.000000	41.514250 
451.500000	41.583833 
452.000000	41.636537 
452.500000	41.831795 
453.000000	42.186909 
453.500000	42.519719 
454.000000	42.755401 
454.500000	43.025575 
455.000000	43.290030 
455.500000	43.542333 
456.000000	43.689265 
456.500000	43.912174 
457.000000	44.151333 
457.500000	44.451643 
458.000000	44.678810 
458.500000	44.876825 
459.000000	45.036113 
459.500000	45.242681 
460.000000	45.454893 
460.500000	45.630992 
461.000000	45.762212 
461.500000	45.950143 
462.000000	46.241863 
462.500000	46.633477 
463.000000	46.971977 
463.500000	47.210159 
464.000000	47.378431 
464.500000	47.628659 
465.000000	47.876015 
465.500000	48.003007 
466.000000	48.051499 
466.500000	48.181621 
467.000000	48.459280 
467.500000	48.783386 
468.000000	49.055371 
468.500000	49.373189 
469.000000	49.637818 
469.500000	49.881212 
470.000000	50.076712 
470.500000	50.414393 
471.000000	50.732015 
471.500000	51.016651 
472.000000	51.231363 
472.500000	51.538333 
473.000000	51.863454 
473.500000	52.118901 
474.000000	52.372840 
474.500000	52.697333 
475.000000	53.104219 
475.500000	53.467871 
476.000000	53.703287 
476.500000	53.886356 
477.000000	54.113863 
477.500000	54.471022 
478.000000	54.825196 
478.500000	55.116037 
479.000000	55.301053 
479.500000	55.540416 
480.000000	55.832318 
480.500000	56.237196 
481.000000	56.669734 
481.500000	57.070727 
482.000000	57.350416 
482.500000	57.625984 
483.000000	57.963000 
483.500000	58.365924 
484.000000	58.630537 
484.500000	58.871151 
485.000000	59.074886 
485.500000	59.368446 
486.000000	59.679159 
486.500000	60.189916 
487.000000	60.611780 
487.500000	60.861765 
488.000000	60.962780 
488.500000	61.216992 
489.000000	61.579553 
489.500000	61.892371 
490.000000	62.080696 
490.500000	62.348303 
491.000000	62.683939 
491.500000	62.942098 
492.000000	63.090378 
492.500000	63.241659 
493.000000	63.386878 
493.500000	63.597666 
494.000000	63.844583 
494.500000	64.190530 
495.000000	64.532462 
495.500000	64.787257 
496.000000	65.006484 
496.500000	65.221219 
497.000000	65.404090 
497.500000	65.554477 
498.000000	65.755727 
498.500000	65.863015 
499.000000	65.993946 
499.500000	66.211007 
500.000000	66.592734 
500.500000	66.842545 
501.000000	66.871416 
501.500000	66.785045 
502.000000	66.907439 
502.500000	67.180295 
503.000000	67.471666 
503.500000	67.593522 
504.000000	67.663386 
504.500000	67.786810 
505.000000	68.072757 
505.500000	68.298636 
506.000000	68.344219 
506.500000	68.280999 
507.000000	68.314227 
507.500000	68.490977 
508.000000	68.686378 
508.500000	68.880507 
509.000000	69.025606 
509.500000	69.112136 
510.000000	69.136000 
510.500000	69.168636 
511.000000	69.247166 
511.500000	69.308250 
512.000000	69.350674 
512.500000	69.392954 
513.000000	69.486803 
513.500000	69.585643 
514.000000	69.558931 
514.500000	69.444280 
515.000000	69.398931 
515.500000	69.560356 
516.000000	69.665568 
516.500000	69.596030 
517.000000	69.367234 
517.500000	69.231333 
518.000000	69.295651 
518.500000	69.474075 
519.000000	69.606916 
519.500000	69.582833 
520.000000	69.390666 
520.500000	69.118916 
521.000000	68.983363 
521.500000	69.005219 
522.000000	69.091795 
522.500000	69.103931 
523.000000	69.056515 
523.500000	68.968045 
524.000000	68.903469 
524.500000	68.830136 
525.000000	68.849333 
525.500000	68.796469 
526.000000	68.723325 
526.500000	68.602431 
527.000000	68.601795 
527.500000	68.626734 
528.000000	68.601954 
528.500000	68.443030 
529.000000	68.203750 
529.500000	68.127325 
530.000000	68.081484 
530.500000	68.036553 
531.000000	67.881681 
531.500000	67.823946 
532.000000	67.699696 
532.500000	67.512037 
533.000000	67.310598 
533.500000	67.237265 
534.000000	67.128666 
534.500000	66.868598 
535.000000	66.628348 
535.500000	66.511810 
536.000000	66.509128 
536.500000	66.419325 
537.000000	66.259583 
537.500000	66.081030 
538.000000	65.952363 
538.500000	65.755977 
539.000000	65.568075 
539.500000	65.450143 
540.000000	65.400045 
540.500000	65.249446 
541.000000	64.954840 
541.500000	64.608204 
542.000000	64.443878 
542.500000	64.476871 
543.000000	64.597121 
543.500000	64.544924 
544.000000	64.363363 
544.500000	64.083954 
545.000000	63.852575 
545.500000	63.633295 
546.000000	63.475613 
546.500000	63.370621 
547.000000	63.292310 
547.500000	63.150568 
548.000000	62.887560 
548.500000	62.641901 
549.000000	62.486265 
549.500000	62.494696 
550.000000	62.391613 
550.500000	62.227719 
551.000000	62.069780 
551.500000	61.939522 
552.000000	61.644674 
552.500000	61.286098 
553.000000	61.022719 
553.500000	60.883151 
554.000000	60.757250 
554.500000	60.590674 
555.000000	60.417606 
555.500000	60.256515 
556.000000	60.020613 
556.500000	59.834446 
557.000000	59.646568 
557.500000	59.574325 
558.000000	59.420575 
558.500000	59.233257 
559.000000	58.833287 
559.500000	58.478234 
560.000000	58.210462 
560.500000	58.193356 
561.000000	58.160371 
561.500000	58.135234 
562.000000	58.010257 
562.500000	57.842272 
563.000000	57.487765 
563.500000	57.115250 
564.000000	56.862856 
564.500000	56.759121 
565.000000	56.656825 
565.500000	56.468833 
566.000000	56.327128 
566.500000	56.126946 
567.000000	55.883848 
567.500000	55.524659 
568.000000	55.277363 
568.500000	55.128583 
569.000000	55.030537 
569.500000	54.902689 
570.000000	54.834219 
570.500000	54.841401 
571.000000	54.673098 
571.500000	54.246636 
572.000000	53.747901 
572.500000	53.499136 
573.000000	53.455749 
573.500000	53.434393 
574.000000	53.273833 
574.500000	52.991628 
575.000000	52.733659 
575.500000	52.567424 
576.000000	52.502856 
576.500000	52.347931 
577.000000	52.070969 
577.500000	51.731901 
578.000000	51.569977 
578.500000	51.527257 
579.000000	51.522772 
579.500000	51.369333 
580.000000	51.132015 
580.500000	50.846909 
581.000000	50.626575 
581.500000	50.389643 
582.000000	50.130893 
582.500000	49.902227 
583.000000	49.728810 
583.500000	49.585825 
584.000000	49.319727 
584.500000	49.027250 
585.000000	48.713113 
585.500000	48.576340 
586.000000	48.423833 
586.500000	48.275848 
587.000000	47.992575 
587.500000	47.782212 
588.000000	47.656325 
588.500000	47.593666 
589.000000	47.440659 
589.500000	47.251954 
590.000000	47.094939 
590.500000	46.933545 
591.000000	46.731848 
591.500000	46.518931 
592.000000	46.387348 
592.500000	46.281295 
593.000000	46.050348 
593.500000	45.722772 
594.000000	45.474219 
594.500000	45.375878 
595.000000	45.177818 
595.500000	44.820136 
596.000000	44.451227 
596.500000	44.336696 
597.000000	44.266113 
597.500000	44.146795 
598.000000	43.949439 
598.500000	43.773909 
599.000000	43.558386 
599.500000	43.436053 
600.000000	43.418000 

