PE FL                   SPECTRUM    ASCII       PEDS        1.60        
  -1
CDSRT#57.SP
02/03/22
03:54:29.00
02/03/22
03:57:06.00


540.000000
1









LS55
280.00
5.00
5.00
SCAN
1
20
100
100
0
100
0
1
0
1
7
ON
600 310 
1 0 0
#HDR
-1
-1
#GR
NM

0.00002384185791015625
0.0
300.000000
0.500000
481
8
10.747984
0.326000
#DATA
300.000000	0.326000  
300.500000	0.419212  
301.000000	0.540984  
301.500000	0.693545  
302.000000	0.871295  
302.500000	1.048636  
303.000000	1.259477  
303.500000	1.486143  
304.000000	1.749333  
304.500000	1.974280  
305.000000	2.183924  
305.500000	2.365159  
306.000000	2.575621  
306.500000	2.767098  
307.000000	2.948590  
307.500000	3.113651  
308.000000	3.311386  
308.500000	3.512462  
309.000000	3.649666  
309.500000	3.710886  
310.000000	3.746409  
310.500000	3.807545  
311.000000	3.882227  
311.500000	3.931825  
312.000000	3.953333  
312.500000	3.960363  
313.000000	3.981204  
313.500000	4.022871  
314.000000	4.075568  
314.500000	4.092863  
315.000000	4.086446  
315.500000	4.081098  
316.000000	4.088818  
316.500000	4.047219  
317.000000	3.976757  
317.500000	3.937037  
318.000000	3.966212  
318.500000	3.981606  
319.000000	3.954484  
319.500000	3.878174  
320.000000	3.803878  
320.500000	3.765606  
321.000000	3.755772  
321.500000	3.730590  
322.000000	3.660863  
322.500000	3.609863  
323.000000	3.611856  
323.500000	3.624416  
324.000000	3.583348  
324.500000	3.501803  
325.000000	3.446545  
325.500000	3.435643  
326.000000	3.444030  
326.500000	3.414856  
327.000000	3.323621  
327.500000	3.197356  
328.000000	3.110250  
328.500000	3.087356  
329.000000	3.078590  
329.500000	3.035257  
330.000000	2.960545  
330.500000	2.891166  
331.000000	2.857659  
331.500000	2.841333  
332.000000	2.808280  
332.500000	2.745954  
333.000000	2.677113  
333.500000	2.627765  
334.000000	2.598045  
334.500000	2.570606  
335.000000	2.543878  
335.500000	2.502537  
336.000000	2.432166  
336.500000	2.371666  
337.000000	2.362712  
337.500000	2.363515  
338.000000	2.327371  
338.500000	2.275265  
339.000000	2.218924  
339.500000	2.145242  
340.000000	2.088651  
340.500000	2.112803  
341.000000	2.186750  
341.500000	2.202462  
342.000000	2.137128  
342.500000	2.063939  
343.000000	2.023575  
343.500000	1.988113  
344.000000	1.940803  
344.500000	1.903545  
345.000000	1.892984  
345.500000	1.895681  
346.000000	1.868659  
346.500000	1.797310  
347.000000	1.736250  
347.500000	1.718500  
348.000000	1.742583  
348.500000	1.762227  
349.000000	1.759083  
349.500000	1.717037  
350.000000	1.656909  
350.500000	1.618689  
351.000000	1.604765  
351.500000	1.589530  
352.000000	1.578780  
352.500000	1.590893  
353.000000	1.614106  
353.500000	1.609401  
354.000000	1.584840  
354.500000	1.548901  
355.000000	1.524128  
355.500000	1.500272  
356.000000	1.490545  
356.500000	1.471962  
357.000000	1.454401  
357.500000	1.447742  
358.000000	1.454113  
358.500000	1.438310  
359.000000	1.412037  
359.500000	1.404522  
360.000000	1.409340  
360.500000	1.395515  
361.000000	1.373795  
361.500000	1.370363  
362.000000	1.378568  
362.500000	1.375712  
363.000000	1.364856  
363.500000	1.361113  
364.000000	1.350000  
364.500000	1.325507  
365.000000	1.318340  
365.500000	1.330598  
366.000000	1.342757  
366.500000	1.338712  
367.000000	1.320000  
367.500000	1.310378  
368.000000	1.310227  
368.500000	1.325295  
369.000000	1.323613  
369.500000	1.317348  
370.000000	1.318492  
370.500000	1.345681  
371.000000	1.359113  
371.500000	1.369681  
372.000000	1.385469  
372.500000	1.406651  
373.000000	1.400462  
373.500000	1.394787  
374.000000	1.406537  
374.500000	1.442659  
375.000000	1.450643  
375.500000	1.437121  
376.000000	1.413704  
376.500000	1.425568  
377.000000	1.451356  
377.500000	1.488325  
378.000000	1.509189  
378.500000	1.539787  
379.000000	1.573636  
379.500000	1.610181  
380.000000	1.626386  
380.500000	1.636287  
381.000000	1.639280  
381.500000	1.669227  
382.000000	1.707674  
382.500000	1.746159  
383.000000	1.778477  
383.500000	1.831530  
384.000000	1.875992  
384.500000	1.907242  
385.000000	1.931000  
385.500000	1.974060  
386.000000	2.009295  
386.500000	2.027977  
387.000000	2.068878  
387.500000	2.129446  
388.000000	2.184295  
388.500000	2.228795  
389.000000	2.270151  
389.500000	2.309772  
390.000000	2.326030  
390.500000	2.347606  
391.000000	2.390515  
391.500000	2.438462  
392.000000	2.461075  
392.500000	2.504795  
393.000000	2.596068  
393.500000	2.682257  
394.000000	2.717863  
394.500000	2.731083  
395.000000	2.796818  
395.500000	2.857946  
396.000000	2.859787  
396.500000	2.837545  
397.000000	2.888492  
397.500000	3.001348  
398.000000	3.112833  
398.500000	3.175863  
399.000000	3.219469  
399.500000	3.252340  
400.000000	3.297234  
400.500000	3.342772  
401.000000	3.368628  
401.500000	3.399189  
402.000000	3.481621  
402.500000	3.616825  
403.000000	3.733696  
403.500000	3.781522  
404.000000	3.768121  
404.500000	3.775992  
405.000000	3.815712  
405.500000	3.869106  
406.000000	3.898219  
406.500000	3.907621  
407.000000	3.969659  
407.500000	4.091818  
408.000000	4.219196  
408.500000	4.283196  
409.000000	4.304734  
409.500000	4.323439  
410.000000	4.383439  
410.500000	4.437931  
411.000000	4.480166  
411.500000	4.523681  
412.000000	4.618143  
412.500000	4.746590  
413.000000	4.849242  
413.500000	4.878484  
414.000000	4.906242  
414.500000	4.967106  
415.000000	5.032659  
415.500000	5.092795  
416.000000	5.147098  
416.500000	5.240287  
417.000000	5.343780  
417.500000	5.444045  
418.000000	5.491045  
418.500000	5.537219  
419.000000	5.618696  
419.500000	5.750772  
420.000000	5.836954  
420.500000	5.884409  
421.000000	5.940780  
421.500000	6.068462  
422.000000	6.179106  
422.500000	6.287500  
423.000000	6.371590  
423.500000	6.468143  
424.000000	6.491477  
424.500000	6.535598  
425.000000	6.577659  
425.500000	6.665742  
426.000000	6.726106  
426.500000	6.821696  
427.000000	6.902393  
427.500000	6.970196  
428.000000	6.990696  
428.500000	7.023636  
429.000000	7.075606  
429.500000	7.133037  
430.000000	7.221363  
430.500000	7.304090  
431.000000	7.395757  
431.500000	7.460507  
432.000000	7.524916  
432.500000	7.551833  
433.000000	7.574090  
433.500000	7.603916  
434.000000	7.662265  
434.500000	7.747128  
435.000000	7.835356  
435.500000	7.901931  
436.000000	7.932075  
436.500000	7.960696  
437.000000	8.038136  
437.500000	8.113075  
438.000000	8.175469  
438.500000	8.247083  
439.000000	8.362348  
439.500000	8.421863  
440.000000	8.397492  
440.500000	8.346356  
441.000000	8.376772  
441.500000	8.467848  
442.000000	8.563098  
442.500000	8.631909  
443.000000	8.683984  
443.500000	8.704931  
444.000000	8.706159  
444.500000	8.701212  
445.000000	8.709719  
445.500000	8.745522  
446.000000	8.808659  
446.500000	8.902613  
447.000000	8.982098  
447.500000	9.024060  
448.000000	8.983212  
448.500000	8.901795  
449.000000	8.860712  
449.500000	8.906249  
450.000000	8.999606  
450.500000	9.078371  
451.000000	9.118068  
451.500000	9.107598  
452.000000	9.072113  
452.500000	9.027810  
453.000000	9.027416  
453.500000	9.048977  
454.000000	9.075280  
454.500000	9.095219  
455.000000	9.121689  
455.500000	9.180643  
456.000000	9.284651  
456.500000	9.364560  
457.000000	9.338250  
457.500000	9.244818  
458.000000	9.189083  
458.500000	9.243363  
459.000000	9.295378  
459.500000	9.291537  
460.000000	9.247113  
460.500000	9.237393  
461.000000	9.236045  
461.500000	9.274863  
462.000000	9.303227  
462.500000	9.293037  
463.000000	9.259651  
463.500000	9.279507  
464.000000	9.361272  
464.500000	9.383181  
465.000000	9.356469  
465.500000	9.312734  
466.000000	9.329598  
466.500000	9.319590  
467.000000	9.329787  
467.500000	9.338424  
468.000000	9.370583  
468.500000	9.404742  
469.000000	9.425681  
469.500000	9.446060  
470.000000	9.459151  
470.500000	9.506856  
471.000000	9.515530  
471.500000	9.479522  
472.000000	9.452878  
472.500000	9.484249  
473.000000	9.546689  
473.500000	9.584712  
474.000000	9.596136  
474.500000	9.619545  
475.000000	9.675969  
475.500000	9.788287  
476.000000	9.861265  
476.500000	9.885007  
477.000000	9.849545  
477.500000	9.891431  
478.000000	9.961363  
478.500000	10.037674 
479.000000	10.062106 
479.500000	10.069492 
480.000000	10.067795 
480.500000	10.078181 
481.000000	10.076068 
481.500000	10.091363 
482.000000	10.129515 
482.500000	10.233886 
483.000000	10.355780 
483.500000	10.517962 
484.000000	10.658166 
484.500000	10.747984 
485.000000	10.735916 
485.500000	10.657712 
486.000000	10.551659 
486.500000	10.480848 
487.000000	10.470409 
487.500000	10.515916 
488.000000	10.531371 
488.500000	10.498954 
489.000000	10.450719 
489.500000	10.409659 
490.000000	10.322295 
490.500000	10.225946 
491.000000	10.199272 
491.500000	10.240803 
492.000000	10.288810 
492.500000	10.294348 
493.000000	10.330090 
493.500000	10.373825 
494.000000	10.384181 
494.500000	10.260446 
495.000000	10.097560 
495.500000	10.007946 
496.000000	10.059477 
496.500000	10.136992 
497.000000	10.133234 
497.500000	10.039371 
498.000000	9.953871  
498.500000	9.890613  
499.000000	9.849378  
499.500000	9.823780  
500.000000	9.842954  
500.500000	9.864704  
501.000000	9.859204  
501.500000	9.799098  
502.000000	9.801098  
502.500000	9.898909  
503.000000	10.043409 
503.500000	10.040378 
504.000000	9.907886  
504.500000	9.755424  
505.000000	9.738045  
505.500000	9.755045  
506.000000	9.740204  
506.500000	9.664295  
507.000000	9.615143  
507.500000	9.586848  
508.000000	9.580272  
508.500000	9.557977  
509.000000	9.514416  
509.500000	9.453340  
510.000000	9.396818  
510.500000	9.363606  
511.000000	9.374507  
511.500000	9.387689  
512.000000	9.339499  
512.500000	9.221363  
513.000000	9.140022  
513.500000	9.161000  
514.000000	9.206795  
514.500000	9.180212  
515.000000	9.076946  
515.500000	8.990916  
516.000000	8.959636  
516.500000	8.994098  
517.000000	9.008053  
517.500000	8.959378  
518.000000	8.869249  
518.500000	8.780659  
519.000000	8.744666  
519.500000	8.749628  
520.000000	8.783893  
520.500000	8.758333  
521.000000	8.661196  
521.500000	8.544242  
522.000000	8.480174  
522.500000	8.506643  
523.000000	8.553196  
523.500000	8.595363  
524.000000	8.571946  
524.500000	8.518727  
525.000000	8.400522  
525.500000	8.282083  
526.000000	8.208939  
526.500000	8.256810  
527.000000	8.317090  
527.500000	8.348590  
528.000000	8.327689  
528.500000	8.326803  
529.000000	8.327242  
529.500000	8.338803  
530.000000	8.318530  
530.500000	8.270053  
531.000000	8.220393  
531.500000	8.160825  
532.000000	8.077189  
532.500000	7.985833  
533.000000	7.920848  
533.500000	7.876219  
534.000000	7.822583  
534.500000	7.791234  
535.000000	7.829946  
535.500000	7.879871  
536.000000	7.869909  
536.500000	7.784462  
537.000000	7.691136  
537.500000	7.646583  
538.000000	7.669166  
538.500000	7.668409  
539.000000	7.606083  
539.500000	7.513522  
540.000000	7.436999  

