PE FL                   SPECTRUM    ASCII       PEDS        1.60        
  -1
CDSRT#51.SP
02/03/22
03:38:27.00
02/03/22
03:40:51.00


480.000000
1









LS55
520.00
5.00
5.00
SCAN
1
20
100
100
0
100
0
0
0
1
7
ON
480 520 
1 0 0
#HDR
-1
-1
#GR
NM

0.00002384185791015625
0.0
270.000000
0.500000
421
8
44.843204
6.173825
#DATA
270.000000	6.874000  
270.500000	6.820401  
271.000000	6.811901  
271.500000	6.829689  
272.000000	6.791431  
272.500000	6.785454  
273.000000	6.819257  
273.500000	6.862310  
274.000000	6.803878  
274.500000	6.743219  
275.000000	6.713386  
275.500000	6.781946  
276.000000	6.824795  
276.500000	6.833749  
277.000000	6.787272  
277.500000	6.735484  
278.000000	6.704901  
278.500000	6.709212  
279.000000	6.713909  
279.500000	6.680863  
280.000000	6.591674  
280.500000	6.525613  
281.000000	6.525636  
281.500000	6.574128  
282.000000	6.565121  
282.500000	6.469500  
283.000000	6.328075  
283.500000	6.251749  
284.000000	6.251522  
284.500000	6.286878  
285.000000	6.310909  
285.500000	6.309083  
286.000000	6.323416  
286.500000	6.301628  
287.000000	6.278946  
287.500000	6.239833  
288.000000	6.231257  
288.500000	6.197446  
289.000000	6.173825  
289.500000	6.182590  
290.000000	6.221060  
290.500000	6.264727  
291.000000	6.292477  
291.500000	6.353734  
292.000000	6.462000  
292.500000	6.599257  
293.000000	6.741969  
293.500000	6.900151  
294.000000	7.122712  
294.500000	7.357628  
295.000000	7.610515  
295.500000	7.857954  
296.000000	8.176621  
296.500000	8.510643  
297.000000	8.843757  
297.500000	9.177295  
298.000000	9.561333  
298.500000	9.983916  
299.000000	10.470598 
299.500000	10.973780 
300.000000	11.436113 
300.500000	11.835075 
301.000000	12.262795 
301.500000	12.728969 
302.000000	13.219477 
302.500000	13.631931 
303.000000	14.008856 
303.500000	14.344181 
304.000000	14.718734 
304.500000	15.112704 
305.000000	15.526318 
305.500000	15.850765 
306.000000	16.060272 
306.500000	16.202530 
307.000000	16.361022 
307.500000	16.664439 
308.000000	16.987818 
308.500000	17.277909 
309.000000	17.459219 
309.500000	17.622000 
310.000000	17.739969 
310.500000	17.861530 
311.000000	18.033128 
311.500000	18.282325 
312.000000	18.529765 
312.500000	18.676628 
313.000000	18.745492 
313.500000	18.818515 
314.000000	18.947909 
314.500000	19.175143 
315.000000	19.384750 
315.500000	19.551234 
316.000000	19.626848 
316.500000	19.728636 
317.000000	19.854560 
317.500000	20.048568 
318.000000	20.222795 
318.500000	20.425696 
319.000000	20.603750 
319.500000	20.788553 
320.000000	20.939969 
320.500000	21.062053 
321.000000	21.175931 
321.500000	21.288128 
322.000000	21.458280 
322.500000	21.591810 
323.000000	21.719492 
323.500000	21.776227 
324.000000	21.895454 
324.500000	21.990234 
325.000000	22.140636 
325.500000	22.334378 
326.000000	22.609689 
326.500000	22.852992 
327.000000	22.995007 
327.500000	23.066416 
328.000000	23.142022 
328.500000	23.244083 
329.000000	23.303106 
329.500000	23.461606 
330.000000	23.696371 
330.500000	24.021507 
331.000000	24.235606 
331.500000	24.385469 
332.000000	24.467227 
332.500000	24.648818 
333.000000	24.815560 
333.500000	25.005780 
334.000000	25.155151 
334.500000	25.299431 
335.000000	25.442780 
335.500000	25.596878 
336.000000	25.740348 
336.500000	25.924765 
337.000000	26.125757 
337.500000	26.336606 
338.000000	26.608863 
338.500000	26.903924 
339.000000	27.173500 
339.500000	27.374348 
340.000000	27.553999 
340.500000	27.743636 
341.000000	27.929704 
341.500000	28.102083 
342.000000	28.276530 
342.500000	28.496613 
343.000000	28.743068 
343.500000	29.002068 
344.000000	29.186984 
344.500000	29.305719 
345.000000	29.471242 
345.500000	29.708871 
346.000000	30.011227 
346.500000	30.263507 
347.000000	30.518037 
347.500000	30.733696 
348.000000	30.987174 
348.500000	31.260333 
349.000000	31.549083 
349.500000	31.758833 
350.000000	31.906886 
350.500000	32.111962 
351.000000	32.444886 
351.500000	32.835446 
352.000000	33.201863 
352.500000	33.481181 
353.000000	33.707621 
353.500000	33.923159 
354.000000	34.228954 
354.500000	34.528287 
355.000000	34.810053 
355.500000	35.069893 
356.000000	35.447651 
356.500000	35.832204 
357.000000	36.160583 
357.500000	36.475712 
358.000000	36.829909 
358.500000	37.186750 
359.000000	37.439992 
359.500000	37.711151 
360.000000	37.987287 
360.500000	38.319954 
361.000000	38.612393 
361.500000	38.956765 
362.000000	39.258719 
362.500000	39.558045 
363.000000	39.857310 
363.500000	40.224015 
364.000000	40.597409 
364.500000	40.924227 
365.000000	41.190393 
365.500000	41.449696 
366.000000	41.704265 
366.500000	41.955621 
367.000000	42.196742 
367.500000	42.400280 
368.000000	42.521583 
368.500000	42.578181 
369.000000	42.653250 
369.500000	42.767530 
370.000000	42.907500 
370.500000	43.103568 
371.000000	43.318507 
371.500000	43.468840 
372.000000	43.580984 
372.500000	43.727666 
373.000000	43.910590 
373.500000	44.017143 
374.000000	44.007825 
374.500000	43.898386 
375.000000	43.820068 
375.500000	43.770386 
376.000000	43.881401 
376.500000	44.094560 
377.000000	44.367886 
377.500000	44.524757 
378.000000	44.547659 
378.500000	44.428272 
379.000000	44.379636 
379.500000	44.433871 
380.000000	44.522553 
380.500000	44.466689 
381.000000	44.354325 
381.500000	44.264590 
382.000000	44.352174 
382.500000	44.461295 
383.000000	44.597727 
383.500000	44.694121 
384.000000	44.801106 
384.500000	44.843204 
385.000000	44.829946 
385.500000	44.712795 
386.000000	44.543075 
386.500000	44.383507 
387.000000	44.348840 
387.500000	44.362037 
388.000000	44.302515 
388.500000	44.091628 
389.000000	43.942340 
389.500000	43.898636 
390.000000	43.941803 
390.500000	43.920371 
391.000000	43.902227 
391.500000	43.813560 
392.000000	43.655159 
392.500000	43.369060 
393.000000	43.057893 
393.500000	42.658068 
394.000000	42.273234 
394.500000	41.935999 
395.000000	41.754916 
395.500000	41.594257 
396.000000	41.431545 
396.500000	41.152681 
397.000000	40.820689 
397.500000	40.438757 
398.000000	40.135507 
398.500000	39.801886 
399.000000	39.441219 
399.500000	39.038219 
400.000000	38.687265 
400.500000	38.326962 
401.000000	37.930249 
401.500000	37.492772 
402.000000	37.060196 
402.500000	36.653257 
403.000000	36.292757 
403.500000	35.946969 
404.000000	35.549689 
404.500000	35.122340 
405.000000	34.796575 
405.500000	34.517674 
406.000000	34.211878 
406.500000	33.699401 
407.000000	33.142371 
407.500000	32.659515 
408.000000	32.344643 
408.500000	32.061181 
409.000000	31.641075 
409.500000	31.028856 
410.000000	30.375984 
410.500000	29.888553 
411.000000	29.517174 
411.500000	29.155492 
412.000000	28.688742 
412.500000	28.232174 
413.000000	27.837204 
413.500000	27.440363 
414.000000	27.030848 
414.500000	26.615053 
415.000000	26.236484 
415.500000	25.861484 
416.000000	25.505833 
416.500000	25.203477 
417.000000	24.945893 
417.500000	24.667848 
418.000000	24.349689 
418.500000	24.022742 
419.000000	23.700113 
419.500000	23.392810 
420.000000	23.059106 
420.500000	22.732681 
421.000000	22.422916 
421.500000	22.167045 
422.000000	21.906477 
422.500000	21.628393 
423.000000	21.334537 
423.500000	21.076469 
424.000000	20.836484 
424.500000	20.622492 
425.000000	20.403606 
425.500000	20.218734 
426.000000	19.996159 
426.500000	19.716477 
427.000000	19.369303 
427.500000	19.144151 
428.000000	19.024234 
428.500000	18.973393 
429.000000	18.840098 
429.500000	18.698704 
430.000000	18.548833 
430.500000	18.421833 
431.000000	18.244393 
431.500000	18.085393 
432.000000	17.922310 
432.500000	17.774136 
433.000000	17.592159 
433.500000	17.421916 
434.000000	17.262734 
434.500000	17.157424 
435.000000	17.038386 
435.500000	16.891863 
436.000000	16.686265 
436.500000	16.479810 
437.000000	16.353507 
437.500000	16.318772 
438.000000	16.288568 
438.500000	16.195196 
439.000000	16.095992 
439.500000	15.981219 
440.000000	15.839030 
440.500000	15.689469 
441.000000	15.614696 
441.500000	15.566015 
442.000000	15.458909 
442.500000	15.342931 
443.000000	15.254530 
443.500000	15.198128 
444.000000	15.083446 
444.500000	15.005363 
445.000000	14.992780 
445.500000	15.017174 
446.000000	14.987280 
446.500000	14.902643 
447.000000	14.805704 
447.500000	14.734295 
448.000000	14.709424 
448.500000	14.718280 
449.000000	14.718765 
449.500000	14.685439 
450.000000	14.599825 
450.500000	14.517598 
451.000000	14.453386 
451.500000	14.436977 
452.000000	14.406371 
452.500000	14.393053 
453.000000	14.376159 
453.500000	14.392795 
454.000000	14.398537 
454.500000	14.393954 
455.000000	14.321189 
455.500000	14.230378 
456.000000	14.150719 
456.500000	14.141484 
457.000000	14.118878 
457.500000	14.096848 
458.000000	14.080946 
458.500000	14.090734 
459.000000	14.071598 
459.500000	14.030500 
460.000000	13.977462 
460.500000	13.947007 
461.000000	13.944242 
461.500000	13.952954 
462.000000	13.937651 
462.500000	13.895704 
463.000000	13.892416 
463.500000	13.917295 
464.000000	13.942189 
464.500000	13.940893 
465.000000	13.976803 
465.500000	14.011242 
466.000000	14.019371 
466.500000	13.981416 
467.000000	13.924075 
467.500000	13.862787 
468.000000	13.855212 
468.500000	13.913856 
469.000000	13.951742 
469.500000	13.991863 
470.000000	14.065628 
470.500000	14.200257 
471.000000	14.247386 
471.500000	14.211984 
472.000000	14.164787 
472.500000	14.230613 
473.000000	14.316083 
473.500000	14.380484 
474.000000	14.420643 
474.500000	14.502454 
475.000000	14.670083 
475.500000	14.827515 
476.000000	14.911984 
476.500000	14.975045 
477.000000	15.117893 
477.500000	15.301568 
478.000000	15.443628 
478.500000	15.529833 
479.000000	15.555992 
479.500000	15.487666 
480.000000	15.298000 

