PE FL                   SPECTRUM    ASCII       PEDS        1.60        
  -1
CDSRT#54.SP
02/03/22
03:46:06.00
02/03/22
03:47:57.00


400.000000
1









LS55
420.00
5.00
5.00
SCAN
1
20
100
100
0
100
0
0
0
1
7
ON
450 400 
1 0 0
#HDR
-1
-1
#GR
NM

0.00002384185791015625
0.0
230.000000
0.500000
341
8
56.046409
3.722992
#DATA
230.000000	4.282000  
230.500000	4.269924  
231.000000	4.261545  
231.500000	4.269325  
232.000000	4.301409  
232.500000	4.348121  
233.000000	4.386825  
233.500000	4.425075  
234.000000	4.489545  
234.500000	4.603242  
235.000000	4.720212  
235.500000	4.797901  
236.000000	4.838621  
236.500000	4.816575  
237.000000	4.723621  
237.500000	4.588651  
238.000000	4.420583  
238.500000	4.252340  
239.000000	4.118727  
239.500000	4.073333  
240.000000	4.076515  
240.500000	4.043409  
241.000000	3.932424  
241.500000	3.863409  
242.000000	3.842462  
242.500000	3.827196  
243.000000	3.772613  
243.500000	3.732742  
244.000000	3.735621  
244.500000	3.738196  
245.000000	3.722992  
245.500000	3.739477  
246.000000	3.783090  
246.500000	3.816469  
247.000000	3.829734  
247.500000	3.864227  
248.000000	3.921598  
248.500000	3.947469  
249.000000	3.951871  
249.500000	3.993530  
250.000000	4.075598  
250.500000	4.130946  
251.000000	4.168060  
251.500000	4.226757  
252.000000	4.321712  
252.500000	4.382356  
253.000000	4.400901  
253.500000	4.424560  
254.000000	4.455174  
254.500000	4.453500  
255.000000	4.402045  
255.500000	4.401636  
256.000000	4.456590  
256.500000	4.536901  
257.000000	4.547984  
257.500000	4.539386  
258.000000	4.545386  
258.500000	4.617606  
259.000000	4.696363  
259.500000	4.741121  
260.000000	4.781553  
260.500000	4.854818  
261.000000	4.977719  
261.500000	5.032871  
262.000000	5.056227  
262.500000	5.066924  
263.000000	5.129204  
263.500000	5.207022  
264.000000	5.299492  
264.500000	5.384151  
265.000000	5.434560  
265.500000	5.440757  
266.000000	5.447053  
266.500000	5.484242  
267.000000	5.562378  
267.500000	5.634219  
268.000000	5.707515  
268.500000	5.775151  
269.000000	5.863863  
269.500000	5.902083  
270.000000	5.902909  
270.500000	5.927204  
271.000000	6.000689  
271.500000	6.068810  
272.000000	6.075590  
272.500000	6.075143  
273.000000	6.098674  
273.500000	6.160000  
274.000000	6.229113  
274.500000	6.255075  
275.000000	6.194696  
275.500000	6.072037  
276.000000	6.023060  
276.500000	6.066613  
277.000000	6.139022  
277.500000	6.132499  
278.000000	6.120083  
278.500000	6.133310  
279.000000	6.169999  
279.500000	6.131924  
280.000000	6.054212  
280.500000	5.965712  
281.000000	5.941340  
281.500000	5.957553  
282.000000	6.006931  
282.500000	6.040189  
283.000000	6.033159  
283.500000	5.983189  
284.000000	5.917310  
284.500000	5.838969  
285.000000	5.780696  
285.500000	5.725598  
286.000000	5.684166  
286.500000	5.645212  
287.000000	5.603507  
287.500000	5.547628  
288.000000	5.488863  
288.500000	5.470969  
289.000000	5.457348  
289.500000	5.405189  
290.000000	5.291765  
290.500000	5.241598  
291.000000	5.241439  
291.500000	5.261401  
292.000000	5.272159  
292.500000	5.299499  
293.000000	5.375643  
293.500000	5.444757  
294.000000	5.520477  
294.500000	5.596015  
295.000000	5.720681  
295.500000	5.887931  
296.000000	6.143272  
296.500000	6.467477  
297.000000	6.876037  
297.500000	7.388666  
298.000000	8.008999  
298.500000	8.717856  
299.000000	9.464219  
299.500000	10.304734 
300.000000	11.232446 
300.500000	12.181878 
301.000000	13.036878 
301.500000	13.877287 
302.000000	14.744007 
302.500000	15.624484 
303.000000	16.399098 
303.500000	17.062416 
304.000000	17.653022 
304.500000	18.168590 
305.000000	18.652151 
305.500000	19.100719 
306.000000	19.485303 
306.500000	19.803113 
307.000000	20.139901 
307.500000	20.495454 
308.000000	20.809068 
308.500000	21.098340 
309.000000	21.351356 
309.500000	21.558606 
310.000000	21.654401 
310.500000	21.765454 
311.000000	21.967242 
311.500000	22.170712 
312.000000	22.286606 
312.500000	22.368515 
313.000000	22.490106 
313.500000	22.640613 
314.000000	22.786037 
314.500000	22.991962 
315.000000	23.214250 
315.500000	23.409227 
316.000000	23.510780 
316.500000	23.650818 
317.000000	23.823984 
317.500000	23.998386 
318.000000	24.141765 
318.500000	24.345704 
319.000000	24.625045 
319.500000	24.895954 
320.000000	25.162469 
320.500000	25.437500 
321.000000	25.779568 
321.500000	26.098583 
322.000000	26.370310 
322.500000	26.579189 
323.000000	26.787712 
323.500000	27.063181 
324.000000	27.426803 
324.500000	27.868121 
325.000000	28.276840 
325.500000	28.664166 
326.000000	29.001242 
326.500000	29.358424 
327.000000	29.708022 
327.500000	30.090212 
328.000000	30.457795 
328.500000	30.853462 
329.000000	31.252681 
329.500000	31.649674 
330.000000	32.068856 
330.500000	32.501886 
331.000000	32.941750 
331.500000	33.359174 
332.000000	33.715060 
332.500000	34.079583 
333.000000	34.561803 
333.500000	35.200416 
334.000000	35.826893 
334.500000	36.300310 
335.000000	36.644575 
335.500000	37.091750 
336.000000	37.636075 
336.500000	38.200424 
337.000000	38.661795 
337.500000	39.075007 
338.000000	39.480795 
338.500000	39.935568 
339.000000	40.493893 
339.500000	41.090378 
340.000000	41.623734 
340.500000	42.072924 
341.000000	42.459696 
341.500000	42.821212 
342.000000	43.170022 
342.500000	43.624090 
343.000000	44.200106 
343.500000	44.853007 
344.000000	45.348621 
344.500000	45.738757 
345.000000	46.099530 
345.500000	46.566272 
346.000000	47.046681 
346.500000	47.534348 
347.000000	48.012378 
347.500000	48.521689 
348.000000	49.038401 
348.500000	49.500280 
349.000000	49.843015 
349.500000	50.068287 
350.000000	50.291674 
350.500000	50.651500 
351.000000	51.154075 
351.500000	51.689825 
352.000000	52.118803 
352.500000	52.459462 
353.000000	52.760340 
353.500000	53.077893 
354.000000	53.347696 
354.500000	53.601053 
355.000000	53.877075 
355.500000	54.188568 
356.000000	54.487643 
356.500000	54.728431 
357.000000	54.990143 
357.500000	55.254689 
358.000000	55.510878 
358.500000	55.590606 
359.000000	55.622151 
359.500000	55.714257 
360.000000	55.922469 
360.500000	56.046409 
361.000000	56.035409 
361.500000	55.927818 
362.000000	55.828931 
362.500000	55.733083 
363.000000	55.698484 
363.500000	55.705840 
364.000000	55.684439 
364.500000	55.589848 
365.000000	55.479007 
365.500000	55.274666 
366.000000	55.038818 
366.500000	54.739469 
367.000000	54.499553 
367.500000	54.212984 
368.000000	53.855696 
368.500000	53.414287 
369.000000	52.991393 
369.500000	52.674636 
370.000000	52.402439 
370.500000	52.044803 
371.000000	51.566674 
371.500000	51.099189 
372.000000	50.657909 
372.500000	50.172628 
373.000000	49.585931 
373.500000	48.998045 
374.000000	48.510053 
374.500000	48.032916 
375.000000	47.476348 
375.500000	46.821053 
376.000000	46.068833 
376.500000	45.354803 
377.000000	44.695363 
377.500000	44.150575 
378.000000	43.578750 
378.500000	43.008045 
379.000000	42.336098 
379.500000	41.706666 
380.000000	41.094621 
380.500000	40.571303 
381.000000	39.994946 
381.500000	39.335916 
382.000000	38.616363 
382.500000	37.980393 
383.000000	37.428393 
383.500000	36.887280 
384.000000	36.423189 
384.500000	35.962727 
385.000000	35.462030 
385.500000	34.819303 
386.000000	34.184704 
386.500000	33.587136 
387.000000	33.041037 
387.500000	32.447742 
388.000000	31.949083 
388.500000	31.543060 
389.000000	31.155045 
389.500000	30.687787 
390.000000	30.214507 
390.500000	29.779863 
391.000000	29.398863 
391.500000	29.005318 
392.000000	28.574204 
392.500000	28.065371 
393.000000	27.498340 
393.500000	26.909931 
394.000000	26.409424 
394.500000	26.024689 
395.000000	25.727310 
395.500000	25.434984 
396.000000	25.088234 
396.500000	24.671977 
397.000000	24.238431 
397.500000	23.780856 
398.000000	23.312621 
398.500000	22.972227 
399.000000	22.716477 
399.500000	22.222181 
400.000000	21.373000 

