PE FL                   SPECTRUM    ASCII       PEDS        1.60        
  -1
01#174.SP
02/03/18
04:17:03.00
02/03/18
04:18:54.00


450.000000
1









LS55
485.00
5.00
5.00
SCAN
1
20
100
100
0
100
0
0
0
1
7
ON
650 360 
1 0 0
#HDR
-1
-1
#GR
NM

0.00002384185791015625
0.0
290.000000
0.500000
321
8
104.171681
28.437969
#DATA
290.000000	40.695999  
290.500000	40.870083  
291.000000	40.723454  
291.500000	40.334401  
292.000000	39.961356  
292.500000	39.694598  
293.000000	39.493590  
293.500000	39.244053  
294.000000	39.009734  
294.500000	39.038378  
295.000000	39.433583  
295.500000	40.086992  
296.000000	40.638446  
296.500000	41.109204  
297.000000	41.759901  
297.500000	42.754227  
298.000000	43.850954  
298.500000	44.938568  
299.000000	45.928121  
299.500000	46.960234  
300.000000	47.949848  
300.500000	48.945659  
301.000000	49.849022  
301.500000	50.627446  
302.000000	51.194999  
302.500000	51.757469  
303.000000	52.417257  
303.500000	53.114810  
304.000000	53.647227  
304.500000	54.048893  
305.000000	54.389727  
305.500000	54.668537  
306.000000	54.908765  
306.500000	55.184022  
307.000000	55.474984  
307.500000	55.632348  
308.000000	55.698303  
308.500000	55.701893  
309.000000	55.811560  
309.500000	56.000659  
310.000000	56.244666  
310.500000	56.395037  
311.000000	56.388340  
311.500000	56.430439  
312.000000	56.600053  
312.500000	56.738416  
313.000000	56.659250  
313.500000	56.595121  
314.000000	56.735772  
314.500000	56.921386  
315.000000	56.941204  
315.500000	56.859719  
316.000000	56.877257  
316.500000	57.032734  
317.000000	57.212522  
317.500000	57.381386  
318.000000	57.432462  
318.500000	57.381863  
319.000000	57.267083  
319.500000	57.300962  
320.000000	57.447803  
320.500000	57.651136  
321.000000	57.763143  
321.500000	57.835825  
322.000000	57.889159  
322.500000	57.974598  
323.000000	58.135772  
323.500000	58.386356  
324.000000	58.668999  
324.500000	58.865159  
325.000000	59.023681  
325.500000	59.178492  
326.000000	59.408999  
326.500000	59.650583  
327.000000	59.922431  
327.500000	60.189916  
328.000000	60.493424  
328.500000	60.759053  
329.000000	60.999696  
329.500000	61.147363  
330.000000	61.319151  
330.500000	61.543659  
331.000000	61.887522  
331.500000	62.216666  
332.000000	62.570340  
332.500000	62.893151  
333.000000	63.248431  
333.500000	63.583386  
334.000000	63.873136  
334.500000	64.120378  
335.000000	64.390007  
335.500000	64.653606  
336.000000	64.840833  
336.500000	65.060507  
337.000000	65.332409  
337.500000	65.706053  
338.000000	66.073181  
338.500000	66.457477  
339.000000	66.829492  
339.500000	67.228712  
340.000000	67.565734  
340.500000	67.916393  
341.000000	68.337030  
341.500000	68.744037  
342.000000	69.033909  
342.500000	69.277174  
343.000000	69.702946  
343.500000	70.340280  
344.000000	70.882257  
344.500000	71.197159  
345.000000	71.435272  
345.500000	71.801113  
346.000000	72.260446  
346.500000	72.668878  
347.000000	73.108280  
347.500000	73.658439  
348.000000	74.257856  
348.500000	74.633272  
349.000000	74.988780  
349.500000	75.431795  
350.000000	75.999075  
350.500000	76.358424  
351.000000	76.646636  
351.500000	76.936287  
352.000000	77.347931  
352.500000	77.800734  
353.000000	78.494909  
353.500000	79.534371  
354.000000	80.914856  
354.500000	82.517045  
355.000000	84.484674  
355.500000	86.916454  
356.000000	89.914462  
356.500000	93.119037  
357.000000	96.249272  
357.500000	98.960522  
358.000000	101.247500 
358.500000	102.891000 
359.000000	103.889780 
359.500000	104.171681 
360.000000	103.654287 
360.500000	102.411431 
361.000000	100.750734 
361.500000	99.123984  
362.000000	97.608530  
362.500000	95.991030  
363.000000	94.238939  
363.500000	92.704249  
364.000000	91.784553  
364.500000	91.331825  
365.000000	90.960840  
365.500000	90.450477  
366.000000	90.110893  
366.500000	90.147363  
367.000000	90.355984  
367.500000	90.329310  
368.000000	90.133265  
368.500000	90.072946  
369.000000	90.371325  
369.500000	90.776590  
370.000000	91.155643  
370.500000	91.345356  
371.000000	91.399628  
371.500000	91.459030  
372.000000	91.699818  
372.500000	91.992075  
373.000000	92.044424  
373.500000	91.880045  
374.000000	91.590431  
374.500000	91.254212  
375.000000	90.786674  
375.500000	90.248969  
376.000000	89.591962  
376.500000	88.853272  
377.000000	88.080787  
377.500000	87.336606  
378.000000	86.504492  
378.500000	85.583181  
379.000000	84.573106  
379.500000	83.381954  
380.000000	81.996431  
380.500000	80.546856  
381.000000	79.277356  
381.500000	78.196083  
382.000000	77.215878  
382.500000	76.207393  
383.000000	75.201393  
383.500000	74.129015  
384.000000	72.998977  
384.500000	71.777212  
385.000000	70.587878  
385.500000	69.416916  
386.000000	68.289143  
386.500000	67.085590  
387.000000	65.984310  
387.500000	64.943818  
388.000000	63.980621  
388.500000	63.022674  
389.000000	62.075810  
389.500000	61.063098  
390.000000	60.012068  
390.500000	59.097075  
391.000000	58.350022  
391.500000	57.691431  
392.000000	56.890560  
392.500000	55.959893  
393.000000	55.013303  
393.500000	54.185492  
394.000000	53.397234  
394.500000	52.649606  
395.000000	51.883962  
395.500000	51.215893  
396.000000	50.531530  
396.500000	49.774515  
397.000000	48.872636  
397.500000	48.063477  
398.000000	47.394499  
398.500000	46.891613  
399.000000	46.428234  
399.500000	45.950401  
400.000000	45.445833  
400.500000	44.926780  
401.000000	44.398840  
401.500000	43.904037  
402.000000	43.478068  
402.500000	43.093696  
403.000000	42.716833  
403.500000	42.300318  
404.000000	41.873212  
404.500000	41.375590  
405.000000	40.868287  
405.500000	40.267871  
406.000000	39.715727  
406.500000	39.127825  
407.000000	38.580893  
407.500000	37.927969  
408.000000	37.224272  
408.500000	36.521007  
409.000000	36.044628  
409.500000	35.666159  
410.000000	35.188022  
410.500000	34.554840  
411.000000	34.029227  
411.500000	33.746060  
412.000000	33.588136  
412.500000	33.304916  
413.000000	32.924356  
413.500000	32.565848  
414.000000	32.274393  
414.500000	32.029272  
415.000000	31.788674  
415.500000	31.494454  
416.000000	31.132681  
416.500000	30.811848  
417.000000	30.607742  
417.500000	30.466075  
418.000000	30.263045  
418.500000	29.978666  
419.000000	29.734189  
419.500000	29.586583  
420.000000	29.549871  
420.500000	29.559401  
421.000000	29.563075  
421.500000	29.504454  
422.000000	29.423886  
422.500000	29.346545  
423.000000	29.362636  
423.500000	29.437484  
424.000000	29.507060  
424.500000	29.533916  
425.000000	29.599984  
425.500000	29.657280  
426.000000	29.679825  
426.500000	29.640818  
427.000000	29.618090  
427.500000	29.597969  
428.000000	29.571219  
428.500000	29.534553  
429.000000	29.496219  
429.500000	29.435727  
430.000000	29.347803  
430.500000	29.235333  
431.000000	29.099931  
431.500000	28.981272  
432.000000	28.995098  
432.500000	29.086234  
433.000000	29.188401  
433.500000	29.144780  
434.000000	29.020924  
434.500000	28.888083  
435.000000	28.823909  
435.500000	28.782446  
436.000000	28.752507  
436.500000	28.716030  
437.000000	28.648492  
437.500000	28.540439  
438.000000	28.488280  
438.500000	28.518303  
439.000000	28.571977  
439.500000	28.548424  
440.000000	28.505780  
440.500000	28.462537  
441.000000	28.451916  
441.500000	28.437969  
442.000000	28.473545  
442.500000	28.585893  
443.000000	28.742848  
443.500000	28.824075  
444.000000	28.815878  
444.500000	28.772590  
445.000000	28.804242  
445.500000	28.873560  
446.000000	28.944492  
446.500000	29.065212  
447.000000	29.335871  
447.500000	29.719992  
448.000000	30.118234  
448.500000	30.497136  
449.000000	30.896204  
449.500000	31.339954  
450.000000	31.805000  

