PE FL                   SPECTRUM    ASCII       PEDS        1.60        
  -1
01#176.SP
02/03/18
04:22:51.00
02/03/18
04:25:29.00


650.000000
1









LS55
373.00
5.00
5.00
SCAN
1
20
100
100
0
100
0
1
0
1
7
ON
550 310 
1 0 0
#HDR
-1
-1
#GR
NM

0.00002384185791015625
0.0
400.000000
0.500000
501
8
98.839742
37.280000
#DATA
400.000000	59.185000 
400.500000	57.676825 
401.000000	56.914333 
401.500000	56.682598 
402.000000	56.303651 
402.500000	55.570659 
403.000000	54.811515 
403.500000	54.267795 
404.000000	53.906500 
404.500000	53.427621 
405.000000	52.656219 
405.500000	51.598212 
406.000000	50.556234 
406.500000	49.729295 
407.000000	49.120765 
407.500000	48.557962 
408.000000	48.104681 
408.500000	47.741651 
409.000000	47.467007 
409.500000	47.211075 
410.000000	46.976378 
410.500000	46.819727 
411.000000	46.746363 
411.500000	46.758128 
412.000000	46.781143 
412.500000	46.857848 
413.000000	46.891583 
413.500000	47.055363 
414.000000	47.311227 
414.500000	47.701446 
415.000000	47.991901 
415.500000	48.216136 
416.000000	48.370727 
416.500000	48.621409 
417.000000	48.920015 
417.500000	49.274424 
418.000000	49.621378 
418.500000	49.937924 
419.000000	50.210999 
419.500000	50.475772 
420.000000	50.871500 
420.500000	51.359106 
421.000000	51.893204 
421.500000	52.229916 
422.000000	52.445477 
422.500000	52.653386 
423.000000	53.029643 
423.500000	53.454545 
424.000000	53.823128 
424.500000	54.147606 
425.000000	54.435068 
425.500000	54.832507 
426.000000	55.212780 
426.500000	55.571757 
427.000000	55.742022 
427.500000	55.849984 
428.000000	55.914696 
428.500000	56.111856 
429.000000	56.384181 
429.500000	56.751166 
430.000000	57.075863 
430.500000	57.257234 
431.000000	57.409348 
431.500000	57.586234 
432.000000	57.871689 
432.500000	58.123250 
433.000000	58.516030 
433.500000	58.971803 
434.000000	59.556068 
434.500000	59.931750 
435.000000	60.168090 
435.500000	60.285371 
436.000000	60.555393 
436.500000	60.896356 
437.000000	61.326515 
437.500000	61.704924 
438.000000	62.184318 
438.500000	62.689780 
439.000000	63.075106 
439.500000	63.266659 
440.000000	63.543969 
440.500000	64.056568 
441.000000	64.643174 
441.500000	65.096287 
442.000000	65.391378 
442.500000	65.803696 
443.000000	66.348348 
443.500000	66.970999 
444.000000	67.588409 
444.500000	68.063348 
445.000000	68.490507 
445.500000	68.980310 
446.000000	69.680772 
446.500000	70.289969 
447.000000	70.806787 
447.500000	71.036606 
448.000000	71.179257 
448.500000	71.215446 
449.000000	71.455553 
449.500000	71.774348 
450.000000	72.091825 
450.500000	72.165863 
451.000000	72.136363 
451.500000	72.068909 
452.000000	72.082871 
452.500000	72.244984 
453.000000	72.527689 
453.500000	72.801530 
454.000000	72.979795 
454.500000	73.263659 
455.000000	73.821984 
455.500000	74.557871 
456.000000	75.262674 
456.500000	75.777227 
457.000000	76.370772 
457.500000	77.018742 
458.000000	77.650401 
458.500000	78.068545 
459.000000	78.460060 
459.500000	78.608424 
460.000000	78.548196 
460.500000	78.397909 
461.000000	78.449734 
461.500000	78.559378 
462.000000	78.624863 
462.500000	78.575674 
463.000000	78.658992 
463.500000	78.703742 
464.000000	78.705537 
464.500000	78.692128 
465.000000	78.843537 
465.500000	79.011977 
466.000000	79.219742 
466.500000	79.401696 
467.000000	79.689462 
467.500000	79.990401 
468.000000	80.307446 
468.500000	80.568636 
469.000000	80.797196 
469.500000	80.954401 
470.000000	81.213507 
470.500000	81.483181 
471.000000	81.628499 
471.500000	81.605613 
472.000000	81.696939 
472.500000	81.879318 
473.000000	82.178507 
473.500000	82.471348 
474.000000	82.817348 
474.500000	83.197007 
475.000000	83.511636 
475.500000	83.750174 
476.000000	83.965090 
476.500000	84.295181 
477.000000	84.683878 
477.500000	85.203621 
478.000000	85.765499 
478.500000	86.409295 
479.000000	87.051863 
479.500000	87.631893 
480.000000	88.251090 
480.500000	88.929727 
481.000000	89.652227 
481.500000	90.455530 
482.000000	91.165037 
482.500000	91.826484 
483.000000	92.422265 
483.500000	93.115325 
484.000000	93.716371 
484.500000	94.074234 
485.000000	94.067712 
485.500000	93.864772 
486.000000	93.544121 
486.500000	93.098522 
487.000000	92.630621 
487.500000	92.080500 
488.000000	91.535871 
488.500000	91.014075 
489.000000	90.563037 
489.500000	90.238151 
490.000000	89.991015 
490.500000	89.755393 
491.000000	89.568909 
491.500000	89.506507 
492.000000	89.515022 
492.500000	89.542227 
493.000000	89.470916 
493.500000	89.411833 
494.000000	89.587590 
494.500000	89.997219 
495.000000	90.506765 
495.500000	90.935863 
496.000000	91.351553 
496.500000	91.809522 
497.000000	92.401590 
497.500000	92.969795 
498.000000	93.615499 
498.500000	94.378219 
499.000000	95.198030 
499.500000	95.934181 
500.000000	96.428068 
500.500000	96.958303 
501.000000	97.565659 
501.500000	98.241590 
502.000000	98.679999 
502.500000	98.839742 
503.000000	98.786909 
503.500000	98.807999 
504.000000	98.839204 
504.500000	98.699553 
505.000000	98.197295 
505.500000	97.541575 
506.000000	96.810371 
506.500000	96.000795 
507.000000	94.902780 
507.500000	93.947954 
508.000000	93.329401 
508.500000	92.990219 
509.000000	92.514340 
509.500000	91.909318 
510.000000	91.451007 
510.500000	91.239037 
511.000000	91.092159 
511.500000	90.864969 
512.000000	90.747174 
512.500000	90.743530 
513.000000	90.783712 
513.500000	90.677090 
514.000000	90.625303 
514.500000	90.590462 
515.000000	90.673613 
515.500000	90.718734 
516.000000	90.879803 
516.500000	90.945068 
517.000000	90.973454 
517.500000	90.904045 
518.000000	90.956901 
518.500000	91.075250 
519.000000	91.338674 
519.500000	91.663962 
520.000000	92.048848 
520.500000	92.206515 
521.000000	92.275037 
521.500000	92.148954 
522.000000	92.021704 
522.500000	91.702219 
523.000000	91.424931 
523.500000	91.072401 
524.000000	90.864575 
524.500000	90.727727 
525.000000	90.684598 
525.500000	90.602606 
526.000000	90.466689 
526.500000	90.300636 
527.000000	90.087121 
527.500000	89.913727 
528.000000	89.832727 
528.500000	89.827575 
529.000000	89.736999 
529.500000	89.475287 
530.000000	89.200727 
530.500000	88.983871 
531.000000	88.806590 
531.500000	88.490446 
532.000000	88.115553 
532.500000	87.890901 
533.000000	87.884454 
533.500000	87.878590 
534.000000	87.696363 
534.500000	87.387651 
535.000000	87.042060 
535.500000	86.675424 
536.000000	86.394363 
536.500000	86.139333 
537.000000	85.964204 
537.500000	85.742848 
538.000000	85.509969 
538.500000	85.184424 
539.000000	84.878901 
539.500000	84.553916 
540.000000	84.258628 
540.500000	83.973075 
541.000000	83.803689 
541.500000	83.746098 
542.000000	83.659856 
542.500000	83.417318 
543.000000	83.164651 
543.500000	82.861954 
544.000000	82.642681 
544.500000	82.420030 
545.000000	82.252015 
545.500000	81.971477 
546.000000	81.729113 
546.500000	81.470916 
547.000000	81.388840 
547.500000	81.387954 
548.000000	81.368651 
548.500000	81.117484 
549.000000	80.779931 
549.500000	80.413333 
550.000000	80.258363 
550.500000	80.102575 
551.000000	79.949878 
551.500000	79.698363 
552.000000	79.519378 
552.500000	79.398840 
553.000000	79.413000 
553.500000	79.384363 
554.000000	79.341787 
554.500000	79.359931 
555.000000	79.412242 
555.500000	79.280999 
556.000000	79.046969 
556.500000	78.809560 
557.000000	78.876613 
557.500000	78.994742 
558.000000	79.180969 
558.500000	79.269295 
559.000000	79.323946 
559.500000	79.095499 
560.000000	78.925439 
560.500000	78.904439 
561.000000	79.209219 
561.500000	79.319924 
562.000000	79.325106 
562.500000	79.258734 
563.000000	79.461386 
563.500000	79.548416 
564.000000	79.465318 
564.500000	79.006575 
565.000000	78.510696 
565.500000	78.037765 
566.000000	77.592409 
566.500000	77.040212 
567.000000	76.532356 
567.500000	76.160386 
568.000000	75.960583 
568.500000	75.631674 
569.000000	75.148537 
569.500000	74.697803 
570.000000	74.467469 
570.500000	74.381424 
571.000000	74.172962 
571.500000	73.813674 
572.000000	73.364303 
572.500000	72.978992 
573.000000	72.672409 
573.500000	72.414393 
574.000000	72.215522 
574.500000	72.052734 
575.000000	71.996136 
575.500000	71.783734 
576.000000	71.487734 
576.500000	71.061954 
577.000000	70.819068 
577.500000	70.681939 
578.000000	70.588878 
578.500000	70.370477 
579.000000	70.103583 
579.500000	69.840659 
580.000000	69.593265 
580.500000	69.285227 
581.000000	68.941090 
581.500000	68.744098 
582.000000	68.735303 
582.500000	68.709136 
583.000000	68.500386 
583.500000	68.065325 
584.000000	67.695242 
584.500000	67.422151 
585.000000	67.174340 
585.500000	66.786833 
586.000000	66.446863 
586.500000	66.215212 
587.000000	66.129818 
587.500000	66.000181 
588.000000	65.833553 
588.500000	65.610462 
589.000000	65.395212 
589.500000	65.258454 
590.000000	65.236386 
590.500000	65.143204 
591.000000	64.882833 
591.500000	64.570037 
592.000000	64.332515 
592.500000	64.190719 
593.000000	64.050750 
593.500000	63.949060 
594.000000	63.805598 
594.500000	63.530606 
595.000000	63.098446 
595.500000	62.729333 
596.000000	62.510742 
596.500000	62.342075 
597.000000	62.142810 
597.500000	61.918386 
598.000000	61.663916 
598.500000	61.289901 
599.000000	60.885037 
599.500000	60.556568 
600.000000	60.393977 
600.500000	60.259606 
601.000000	60.089893 
601.500000	59.817545 
602.000000	59.442196 
602.500000	58.981651 
603.000000	58.611643 
603.500000	58.403401 
604.000000	58.326159 
604.500000	58.188371 
605.000000	57.856053 
605.500000	57.406409 
606.000000	57.130378 
606.500000	57.023159 
607.000000	56.833515 
607.500000	56.379734 
608.000000	55.947053 
608.500000	55.789984 
609.000000	55.840886 
609.500000	55.745871 
610.000000	55.478022 
610.500000	55.095946 
611.000000	54.729893 
611.500000	54.383053 
612.000000	54.086893 
612.500000	53.849022 
613.000000	53.700856 
613.500000	53.618053 
614.000000	53.491787 
614.500000	53.287598 
615.000000	52.971560 
615.500000	52.675234 
616.000000	52.431204 
616.500000	52.254431 
617.000000	52.058727 
617.500000	51.850189 
618.000000	51.575484 
618.500000	51.329053 
619.000000	51.097015 
619.500000	50.905469 
620.000000	50.675196 
620.500000	50.387272 
621.000000	50.097386 
621.500000	49.898068 
622.000000	49.793499 
622.500000	49.673227 
623.000000	49.466727 
623.500000	49.208409 
624.000000	48.944886 
624.500000	48.679409 
625.000000	48.327068 
625.500000	48.018462 
626.000000	47.740280 
626.500000	47.454106 
627.000000	47.064621 
627.500000	46.698962 
628.000000	46.439780 
628.500000	46.276772 
629.000000	46.151439 
629.500000	45.967553 
630.000000	45.759409 
630.500000	45.433280 
631.000000	45.147863 
631.500000	44.875863 
632.000000	44.655431 
632.500000	44.358712 
633.000000	44.103060 
633.500000	43.895575 
634.000000	43.831916 
634.500000	43.684696 
635.000000	43.362734 
635.500000	42.912310 
636.000000	42.534030 
636.500000	42.318606 
637.000000	42.219787 
637.500000	42.073128 
638.000000	41.861537 
638.500000	41.609893 
639.000000	41.395666 
639.500000	41.142590 
640.000000	40.898196 
640.500000	40.692128 
641.000000	40.563106 
641.500000	40.371128 
642.000000	40.150257 
642.500000	39.981219 
643.000000	39.839325 
643.500000	39.612265 
644.000000	39.311439 
644.500000	39.056386 
645.000000	38.869681 
645.500000	38.690954 
646.000000	38.508765 
646.500000	38.332446 
647.000000	38.154727 
647.500000	37.956098 
648.000000	37.741325 
648.500000	37.562325 
649.000000	37.425325 
649.500000	37.337924 
650.000000	37.280000 

