PE FL                   SPECTRUM    ASCII       PEDS        1.60        
  -1
01#175.SP
02/03/18
04:19:42.00
02/03/18
04:22:03.00


550.000000
1









LS55
310.00
5.00
5.00
SCAN
1
20
100
100
0
100
0
1
0
1
7
ON
485 450 
1 0 0
#HDR
-1
-1
#GR
NM

0.00002384185791015625
0.0
330.000000
0.500000
441
8
63.098992
27.138439
#DATA
330.000000	52.428000 
330.500000	51.274416 
331.000000	50.139674 
331.500000	48.986121 
332.000000	47.850628 
332.500000	46.785439 
333.000000	45.936719 
333.500000	45.237492 
334.000000	44.591628 
334.500000	43.909484 
335.000000	43.262636 
335.500000	42.646174 
336.000000	42.046871 
336.500000	41.480598 
337.000000	40.966492 
337.500000	40.547939 
338.000000	40.160068 
338.500000	39.765356 
339.000000	39.335954 
339.500000	39.024106 
340.000000	38.728742 
340.500000	38.353227 
341.000000	37.852454 
341.500000	37.472060 
342.000000	37.148409 
342.500000	36.742083 
343.000000	36.080295 
343.500000	35.354939 
344.000000	34.623060 
344.500000	33.982984 
345.000000	33.388416 
345.500000	32.853500 
346.000000	32.386696 
346.500000	31.943181 
347.000000	31.525515 
347.500000	31.189863 
348.000000	30.969984 
348.500000	30.771613 
349.000000	30.501984 
349.500000	30.260825 
350.000000	30.056287 
350.500000	29.869348 
351.000000	29.545613 
351.500000	29.343477 
352.000000	29.276606 
352.500000	29.270522 
353.000000	29.129681 
353.500000	28.906636 
354.000000	28.766378 
354.500000	28.736037 
355.000000	28.729613 
355.500000	28.646909 
356.000000	28.512151 
356.500000	28.399674 
357.000000	28.370196 
357.500000	28.394606 
358.000000	28.401696 
358.500000	28.369378 
359.000000	28.297477 
359.500000	28.289992 
360.000000	28.339219 
360.500000	28.397696 
361.000000	28.329348 
361.500000	28.210750 
362.000000	28.156848 
362.500000	28.268113 
363.000000	28.351295 
363.500000	28.316818 
364.000000	28.132462 
364.500000	27.954886 
365.000000	27.819090 
365.500000	27.735462 
366.000000	27.678750 
366.500000	27.678719 
367.000000	27.689871 
367.500000	27.727401 
368.000000	27.751348 
368.500000	27.850583 
369.000000	27.962219 
369.500000	28.134803 
370.000000	28.285128 
370.500000	28.440515 
371.000000	28.546954 
371.500000	28.632553 
372.000000	28.701878 
372.500000	28.742772 
373.000000	28.728121 
373.500000	28.578856 
374.000000	28.317765 
374.500000	28.039681 
375.000000	27.847500 
375.500000	27.717659 
376.000000	27.544348 
376.500000	27.375113 
377.000000	27.237060 
377.500000	27.162924 
378.000000	27.138439 
378.500000	27.170037 
379.000000	27.228893 
379.500000	27.260356 
380.000000	27.296053 
380.500000	27.315522 
381.000000	27.358590 
381.500000	27.410750 
382.000000	27.464227 
382.500000	27.507795 
383.000000	27.573090 
383.500000	27.769939 
384.000000	27.980893 
384.500000	28.071621 
385.000000	27.966848 
385.500000	27.877272 
386.000000	27.863409 
386.500000	27.937174 
387.000000	28.049681 
387.500000	28.130098 
388.000000	28.202121 
388.500000	28.222749 
389.000000	28.317803 
389.500000	28.412568 
390.000000	28.536318 
390.500000	28.614424 
391.000000	28.764606 
391.500000	28.921757 
392.000000	29.026462 
392.500000	29.003333 
393.000000	28.955530 
393.500000	28.975674 
394.000000	29.108272 
394.500000	29.239454 
395.000000	29.340159 
395.500000	29.421037 
396.000000	29.502818 
396.500000	29.546136 
397.000000	29.598659 
397.500000	29.682212 
398.000000	29.826090 
398.500000	30.031909 
399.000000	30.294810 
399.500000	30.515265 
400.000000	30.681219 
400.500000	30.802409 
401.000000	31.011522 
401.500000	31.199863 
402.000000	31.384818 
402.500000	31.510053 
403.000000	31.686333 
403.500000	31.805484 
404.000000	31.933007 
404.500000	32.010507 
405.000000	32.128121 
405.500000	32.236893 
406.000000	32.283696 
406.500000	32.234015 
407.000000	32.181545 
407.500000	32.293946 
408.000000	32.542340 
408.500000	32.816151 
409.000000	32.939484 
409.500000	32.955143 
410.000000	32.952719 
410.500000	33.071803 
411.000000	33.271901 
411.500000	33.396416 
412.000000	33.456643 
412.500000	33.499409 
413.000000	33.611007 
413.500000	33.755143 
414.000000	33.917287 
414.500000	34.064772 
415.000000	34.247954 
415.500000	34.482378 
416.000000	34.731348 
416.500000	34.940992 
417.000000	35.100795 
417.500000	35.365636 
418.000000	35.782022 
418.500000	36.224128 
419.000000	36.649136 
419.500000	37.073916 
420.000000	37.583992 
420.500000	38.122454 
421.000000	38.596537 
421.500000	38.946030 
422.000000	39.241977 
422.500000	39.609265 
423.000000	39.932068 
423.500000	40.154681 
424.000000	40.204916 
424.500000	40.274318 
425.000000	40.456734 
425.500000	40.620901 
426.000000	40.717106 
426.500000	40.718181 
427.000000	40.795151 
427.500000	40.823545 
428.000000	40.841219 
428.500000	40.728840 
429.000000	40.673742 
429.500000	40.727583 
430.000000	40.931772 
430.500000	41.116098 
431.000000	41.222484 
431.500000	41.215568 
432.000000	41.276909 
432.500000	41.296234 
433.000000	41.396454 
433.500000	41.494356 
434.000000	41.705946 
434.500000	41.779727 
435.000000	41.765295 
435.500000	41.599598 
436.000000	41.621416 
436.500000	41.869462 
437.000000	42.254386 
437.500000	42.467568 
438.000000	42.515795 
438.500000	42.549318 
439.000000	42.734340 
439.500000	42.973356 
440.000000	43.135795 
440.500000	43.198083 
441.000000	43.235954 
441.500000	43.393537 
442.000000	43.612068 
442.500000	43.763499 
443.000000	43.730007 
443.500000	43.696204 
444.000000	43.797999 
444.500000	44.048537 
445.000000	44.332742 
445.500000	44.557053 
446.000000	44.678416 
446.500000	44.739371 
447.000000	44.882507 
447.500000	45.163962 
448.000000	45.534310 
448.500000	45.795628 
449.000000	45.907060 
449.500000	46.000530 
450.000000	46.123856 
450.500000	46.297946 
451.000000	46.490590 
451.500000	46.737378 
452.000000	47.037704 
452.500000	47.355734 
453.000000	47.569484 
453.500000	47.635962 
454.000000	47.589492 
454.500000	47.561242 
455.000000	47.733166 
455.500000	48.069075 
456.000000	48.511969 
456.500000	48.940477 
457.000000	49.235537 
457.500000	49.455787 
458.000000	49.707007 
458.500000	50.094136 
459.000000	50.368424 
459.500000	50.450166 
460.000000	50.363946 
460.500000	50.373484 
461.000000	50.392727 
461.500000	50.435962 
462.000000	50.512909 
462.500000	50.648643 
463.000000	50.780295 
463.500000	50.830545 
464.000000	50.868613 
464.500000	50.910045 
465.000000	50.957098 
465.500000	51.014045 
466.000000	51.121121 
466.500000	51.300962 
467.000000	51.581492 
467.500000	51.970227 
468.000000	52.340530 
468.500000	52.451954 
469.000000	52.322659 
469.500000	52.186621 
470.000000	52.271378 
470.500000	52.448909 
471.000000	52.583916 
471.500000	52.581803 
472.000000	52.573462 
472.500000	52.556166 
473.000000	52.650424 
473.500000	52.862833 
474.000000	53.118545 
474.500000	53.231484 
475.000000	53.232378 
475.500000	53.299803 
476.000000	53.433257 
476.500000	53.612893 
477.000000	53.754924 
477.500000	53.950454 
478.000000	54.125469 
478.500000	54.288128 
479.000000	54.413181 
479.500000	54.570196 
480.000000	54.688310 
480.500000	54.757803 
481.000000	54.910462 
481.500000	55.177204 
482.000000	55.450590 
482.500000	55.711136 
483.000000	55.948386 
483.500000	56.311696 
484.000000	56.615681 
484.500000	56.823287 
485.000000	56.857143 
485.500000	56.912712 
486.000000	56.881825 
486.500000	56.830916 
487.000000	56.728272 
487.500000	56.730863 
488.000000	56.793030 
488.500000	56.817568 
489.000000	56.749477 
489.500000	56.676909 
490.000000	56.752628 
490.500000	56.931757 
491.000000	57.130962 
491.500000	57.261977 
492.000000	57.468030 
492.500000	57.762121 
493.000000	58.071575 
493.500000	58.365106 
494.000000	58.717060 
494.500000	59.050212 
495.000000	59.262280 
495.500000	59.312053 
496.000000	59.290916 
496.500000	59.237204 
497.000000	59.217454 
497.500000	59.217143 
498.000000	59.130856 
498.500000	58.796621 
499.000000	58.402939 
499.500000	58.206659 
500.000000	58.194401 
500.500000	58.192204 
501.000000	58.118128 
501.500000	58.165553 
502.000000	58.320030 
502.500000	58.539893 
503.000000	58.618856 
503.500000	58.659477 
504.000000	58.758621 
504.500000	59.029121 
505.000000	59.231787 
505.500000	59.278825 
506.000000	59.241704 
506.500000	59.308931 
507.000000	59.424106 
507.500000	59.479083 
508.000000	59.392454 
508.500000	59.404340 
509.000000	59.441212 
509.500000	59.546833 
510.000000	59.520159 
510.500000	59.385659 
511.000000	59.245886 
511.500000	59.237363 
512.000000	59.390719 
512.500000	59.530810 
513.000000	59.672886 
513.500000	59.722681 
514.000000	59.830212 
514.500000	59.912893 
515.000000	60.053128 
515.500000	60.222871 
516.000000	60.342878 
516.500000	60.463045 
517.000000	60.704234 
517.500000	61.063098 
518.000000	61.461325 
518.500000	61.805818 
519.000000	62.253969 
519.500000	62.714242 
520.000000	63.057159 
520.500000	63.098992 
521.000000	63.034007 
521.500000	62.895280 
522.000000	62.746174 
522.500000	62.591363 
523.000000	62.483348 
523.500000	62.393250 
524.000000	62.214946 
524.500000	62.000492 
525.000000	61.899348 
525.500000	61.888151 
526.000000	61.923931 
526.500000	61.962780 
527.000000	62.063507 
527.500000	62.165090 
528.000000	62.242984 
528.500000	62.297348 
529.000000	62.310075 
529.500000	62.257568 
530.000000	62.215613 
530.500000	62.292560 
531.000000	62.382704 
531.500000	62.433871 
532.000000	62.436469 
532.500000	62.506022 
533.000000	62.596712 
533.500000	62.556265 
534.000000	62.489227 
534.500000	62.520189 
535.000000	62.697530 
535.500000	62.734537 
536.000000	62.571946 
536.500000	62.359015 
537.000000	62.330045 
537.500000	62.371045 
538.000000	62.361007 
538.500000	62.247507 
539.000000	62.140515 
539.500000	62.107825 
540.000000	62.227810 
540.500000	62.370303 
541.000000	62.413795 
541.500000	62.403227 
542.000000	62.446795 
542.500000	62.563143 
543.000000	62.574287 
543.500000	62.597500 
544.000000	62.580916 
544.500000	62.684477 
545.000000	62.740371 
545.500000	62.859037 
546.000000	62.892727 
546.500000	62.923136 
547.000000	62.911030 
547.500000	62.853946 
548.000000	62.755909 
548.500000	62.788159 
549.000000	62.976053 
549.500000	63.017136 
550.000000	62.760000 

