PE FL                   SPECTRUM    ASCII       PEDS        1.60        
  -1
01#158.SP
02/03/17
04:06:15.00
02/03/17
04:08:56.00


570.000000
1









LS55
300.00
5.00
5.00
SCAN
1
20
100
100
0
100
0
1
0
1
7
ON
570 300 
1 0 0
#HDR
-1
-1
#GR
NM

0.00002384185791015625
0.0
320.000000
0.500000
501
8
0.006575
-0.000522
#DATA
320.000000	0.004000  
320.500000	0.001098  
321.000000	0.000196  
321.500000	0.000742  
322.000000	0.001090  
322.500000	0.000560  
323.000000	0.000484  
323.500000	0.000863  
324.000000	0.000969  
324.500000	0.000212  
325.000000	0.001272  
325.500000	0.004265  
326.000000	0.006575  
326.500000	0.005128  
327.000000	0.001863  
327.500000	-0.000265 
328.000000	-0.000303 
328.500000	-0.000060 
329.000000	-0.000053 
329.500000	0.000409  
330.000000	0.000984  
330.500000	0.001151  
331.000000	0.000613  
331.500000	0.000075  
332.000000	-0.000121 
332.500000	0.000000  
333.000000	0.000000  
333.500000	0.000000  
334.000000	-0.000060 
334.500000	-0.000053 
335.000000	0.000409  
335.500000	0.000984  
336.000000	0.001151  
336.500000	0.000553  
337.000000	0.000022  
337.500000	0.000287  
338.000000	0.000924  
338.500000	0.001098  
339.000000	0.001022  
339.500000	0.001060  
340.000000	0.001030  
340.500000	0.000613  
341.000000	0.000075  
341.500000	-0.000121 
342.000000	0.000000  
342.500000	0.000000  
343.000000	0.000000  
343.500000	0.000000  
344.000000	0.000000  
344.500000	0.000000  
345.000000	0.000000  
345.500000	0.000000  
346.000000	0.000000  
346.500000	0.000000  
347.000000	0.000000  
347.500000	0.000000  
348.000000	0.000000  
348.500000	0.000000  
349.000000	0.000000  
349.500000	0.000000  
350.000000	0.000000  
350.500000	0.000000  
351.000000	0.000000  
351.500000	0.000000  
352.000000	0.000000  
352.500000	-0.000060 
353.000000	-0.000053 
353.500000	0.000348  
354.000000	0.000931  
354.500000	0.001560  
355.000000	0.001598  
355.500000	0.001227  
356.000000	0.000492  
356.500000	0.000075  
357.000000	-0.000121 
357.500000	0.000000  
358.000000	0.000000  
358.500000	0.000000  
359.000000	0.000000  
359.500000	0.000000  
360.000000	0.000000  
360.500000	0.000000  
361.000000	0.000000  
361.500000	0.000000  
362.000000	0.000000  
362.500000	0.000000  
363.000000	0.000000  
363.500000	0.000000  
364.000000	0.000000  
364.500000	-0.000060 
365.000000	-0.000053 
365.500000	0.000409  
366.000000	0.000984  
366.500000	0.001151  
367.000000	0.000613  
367.500000	0.000075  
368.000000	-0.000121 
368.500000	0.000000  
369.000000	0.000000  
369.500000	0.000000  
370.000000	0.000000  
370.500000	0.000000  
371.000000	0.000000  
371.500000	0.000000  
372.000000	0.000000  
372.500000	0.000000  
373.000000	0.000000  
373.500000	0.000000  
374.000000	0.000000  
374.500000	0.000000  
375.000000	0.000000  
375.500000	0.000000  
376.000000	0.000000  
376.500000	0.000000  
377.000000	0.000000  
377.500000	0.000000  
378.000000	0.000000  
378.500000	0.000000  
379.000000	0.000000  
379.500000	0.000000  
380.000000	0.000000  
380.500000	0.000000  
381.000000	0.000000  
381.500000	0.000000  
382.000000	0.000000  
382.500000	0.000000  
383.000000	0.000000  
383.500000	0.000000  
384.000000	0.000000  
384.500000	0.000000  
385.000000	-0.000060 
385.500000	-0.000053 
386.000000	0.000409  
386.500000	0.000984  
387.000000	0.001151  
387.500000	0.000613  
388.000000	0.000075  
388.500000	-0.000121 
389.000000	0.000000  
389.500000	0.000000  
390.000000	0.000000  
390.500000	0.000000  
391.000000	0.000000  
391.500000	0.000000  
392.000000	0.000000  
392.500000	0.000000  
393.000000	0.000000  
393.500000	0.000000  
394.000000	0.000000  
394.500000	0.000000  
395.000000	0.000000  
395.500000	0.000000  
396.000000	0.000000  
396.500000	0.000000  
397.000000	0.000000  
397.500000	0.000000  
398.000000	0.000000  
398.500000	0.000000  
399.000000	0.000000  
399.500000	0.000000  
400.000000	0.000000  
400.500000	0.000000  
401.000000	0.000000  
401.500000	0.000000  
402.000000	0.000000  
402.500000	0.000000  
403.000000	0.000000  
403.500000	0.000000  
404.000000	0.000000  
404.500000	0.000000  
405.000000	0.000000  
405.500000	0.000000  
406.000000	0.000000  
406.500000	0.000000  
407.000000	0.000000  
407.500000	0.000000  
408.000000	0.000000  
408.500000	0.000000  
409.000000	0.000000  
409.500000	0.000000  
410.000000	0.000000  
410.500000	0.000000  
411.000000	0.000000  
411.500000	0.000000  
412.000000	0.000000  
412.500000	0.000000  
413.000000	0.000000  
413.500000	0.000000  
414.000000	0.000000  
414.500000	0.000000  
415.000000	0.000000  
415.500000	0.000000  
416.000000	0.000000  
416.500000	0.000000  
417.000000	0.000000  
417.500000	0.000000  
418.000000	0.000000  
418.500000	0.000000  
419.000000	0.000000  
419.500000	0.000000  
420.000000	0.000000  
420.500000	-0.000060 
421.000000	-0.000053 
421.500000	0.000409  
422.000000	0.000924  
422.500000	0.001098  
423.000000	0.001022  
423.500000	0.001060  
424.000000	0.001030  
424.500000	0.000613  
425.000000	0.000075  
425.500000	-0.000121 
426.000000	0.000000  
426.500000	0.000000  
427.000000	0.000000  
427.500000	0.000000  
428.000000	0.000000  
428.500000	0.000000  
429.000000	0.000000  
429.500000	0.000000  
430.000000	0.000000  
430.500000	0.000000  
431.000000	0.000000  
431.500000	0.000000  
432.000000	0.000000  
432.500000	-0.000060 
433.000000	-0.000053 
433.500000	0.000409  
434.000000	0.000984  
434.500000	0.001151  
435.000000	0.000613  
435.500000	0.000075  
436.000000	-0.000121 
436.500000	0.000000  
437.000000	0.000000  
437.500000	0.000000  
438.000000	0.000000  
438.500000	-0.000060 
439.000000	-0.000053 
439.500000	0.000409  
440.000000	0.000984  
440.500000	0.001151  
441.000000	0.000613  
441.500000	0.000075  
442.000000	-0.000121 
442.500000	0.000000  
443.000000	0.000000  
443.500000	0.000000  
444.000000	0.000000  
444.500000	0.000000  
445.000000	0.000000  
445.500000	0.000000  
446.000000	0.000000  
446.500000	0.000000  
447.000000	0.000000  
447.500000	0.000000  
448.000000	0.000000  
448.500000	-0.000060 
449.000000	-0.000113 
449.500000	0.000356  
450.000000	0.001393  
450.500000	0.002136  
451.000000	0.001765  
451.500000	0.000689  
452.000000	-0.000045 
452.500000	-0.000121 
453.000000	0.000000  
453.500000	0.000000  
454.000000	0.000000  
454.500000	0.000000  
455.000000	0.000000  
455.500000	-0.000060 
456.000000	-0.000053 
456.500000	0.000409  
457.000000	0.000984  
457.500000	0.001151  
458.000000	0.000613  
458.500000	0.000075  
459.000000	-0.000121 
459.500000	0.000000  
460.000000	0.000000  
460.500000	0.000000  
461.000000	0.000000  
461.500000	-0.000060 
462.000000	-0.000113 
462.500000	0.000356  
463.000000	0.001393  
463.500000	0.002136  
464.000000	0.001765  
464.500000	0.000689  
465.000000	-0.000045 
465.500000	-0.000121 
466.000000	0.000000  
466.500000	0.000000  
467.000000	0.000000  
467.500000	0.000000  
468.000000	0.000000  
468.500000	0.000000  
469.000000	-0.000060 
469.500000	-0.000053 
470.000000	0.000409  
470.500000	0.000984  
471.000000	0.001151  
471.500000	0.000613  
472.000000	0.000075  
472.500000	-0.000121 
473.000000	0.000000  
473.500000	0.000000  
474.000000	0.000000  
474.500000	0.000000  
475.000000	0.000000  
475.500000	0.000000  
476.000000	-0.000060 
476.500000	-0.000053 
477.000000	0.000409  
477.500000	0.000984  
478.000000	0.001151  
478.500000	0.000613  
479.000000	0.000075  
479.500000	-0.000121 
480.000000	0.000000  
480.500000	0.000000  
481.000000	0.000000  
481.500000	0.000000  
482.000000	0.000000  
482.500000	0.000000  
483.000000	0.000000  
483.500000	0.000000  
484.000000	0.000000  
484.500000	0.000000  
485.000000	0.000000  
485.500000	0.000000  
486.000000	0.000000  
486.500000	0.000000  
487.000000	0.000000  
487.500000	0.000000  
488.000000	0.000000  
488.500000	0.000000  
489.000000	0.000000  
489.500000	-0.000060 
490.000000	-0.000053 
490.500000	0.000348  
491.000000	0.000931  
491.500000	0.001560  
492.000000	0.001598  
492.500000	0.001227  
493.000000	0.000492  
493.500000	0.000075  
494.000000	-0.000121 
494.500000	0.000000  
495.000000	0.000000  
495.500000	0.000000  
496.000000	0.000000  
496.500000	0.000000  
497.000000	-0.000060 
497.500000	-0.000053 
498.000000	0.000409  
498.500000	0.000984  
499.000000	0.001151  
499.500000	0.000613  
500.000000	0.000075  
500.500000	-0.000121 
501.000000	0.000000  
501.500000	0.000000  
502.000000	0.000000  
502.500000	0.000000  
503.000000	0.000000  
503.500000	0.000000  
504.000000	0.000000  
504.500000	0.000000  
505.000000	0.000000  
505.500000	0.000000  
506.000000	0.000000  
506.500000	0.000000  
507.000000	0.000000  
507.500000	0.000000  
508.000000	0.000000  
508.500000	0.000000  
509.000000	0.000000  
509.500000	0.000000  
510.000000	0.000000  
510.500000	0.000000  
511.000000	0.000000  
511.500000	-0.000060 
512.000000	-0.000053 
512.500000	0.000409  
513.000000	0.000924  
513.500000	0.001098  
514.000000	0.001022  
514.500000	0.001060  
515.000000	0.001030  
515.500000	0.000613  
516.000000	0.000075  
516.500000	-0.000121 
517.000000	0.000000  
517.500000	0.000000  
518.000000	0.000000  
518.500000	0.000000  
519.000000	0.000000  
519.500000	0.000000  
520.000000	0.000000  
520.500000	0.000000  
521.000000	-0.000121 
521.500000	-0.000166 
522.000000	0.000886  
522.500000	0.002242  
523.000000	0.002742  
523.500000	0.001500  
524.000000	0.000219  
524.500000	-0.000303 
525.000000	0.000000  
525.500000	0.000000  
526.000000	0.000000  
526.500000	0.000000  
527.000000	-0.000060 
527.500000	-0.000053 
528.000000	0.000348  
528.500000	0.000931  
529.000000	0.001560  
529.500000	0.001598  
530.000000	0.001227  
530.500000	0.000492  
531.000000	0.000075  
531.500000	-0.000121 
532.000000	0.000000  
532.500000	0.000000  
533.000000	0.000000  
533.500000	0.000000  
534.000000	0.000000  
534.500000	0.000000  
535.000000	0.000000  
535.500000	0.000000  
536.000000	0.000000  
536.500000	0.000000  
537.000000	0.000000  
537.500000	0.000000  
538.000000	0.000000  
538.500000	0.000000  
539.000000	0.000000  
539.500000	0.000000  
540.000000	-0.000060 
540.500000	-0.000113 
541.000000	0.000356  
541.500000	0.001333  
542.000000	0.002083  
542.500000	0.002174  
543.000000	0.001674  
543.500000	0.001106  
544.000000	0.000492  
544.500000	0.000075  
545.000000	-0.000121 
545.500000	0.000000  
546.000000	0.000000  
546.500000	-0.000181 
547.000000	-0.000522 
547.500000	0.001636  
548.000000	0.004590  
548.500000	0.005969  
549.000000	0.003310  
549.500000	0.001522  
550.000000	0.001515  
550.500000	0.002742  
551.000000	0.001500  
551.500000	0.000219  
552.000000	-0.000303 
552.500000	0.000000  
553.000000	0.000000  
553.500000	0.000000  
554.000000	0.000000  
554.500000	-0.000060 
555.000000	-0.000174 
555.500000	0.000242  
556.000000	0.001871  
556.500000	0.003393  
557.000000	0.003356  
557.500000	0.001575  
558.000000	0.000098  
558.500000	-0.000363 
559.000000	-0.000053 
559.500000	0.000409  
560.000000	0.000984  
560.500000	0.001151  
561.000000	0.000613  
561.500000	0.000075  
562.000000	-0.000181 
562.500000	-0.000053 
563.000000	0.000409  
563.500000	0.000984  
564.000000	0.001090  
564.500000	0.000560  
565.000000	0.000484  
565.500000	0.000863  
566.000000	0.001090  
566.500000	0.000560  
567.000000	0.000484  
567.500000	0.000863  
568.000000	0.001151  
568.500000	0.000613  
569.000000	0.000075  
569.500000	-0.000121 
570.000000	0.000000  

