PE FL                   SPECTRUM    ASCII       PEDS        1.60        
  -1
01#178.SP
02/03/18
04:28:53.00
02/03/18
04:31:26.00


530.000000
1









LS55
563.00
5.00
5.00
SCAN
1
20
100
100
0
100
0
0
0
1
7
ON
503 470 
1 0 0
#HDR
-1
-1
#GR
NM

0.00002384185791015625
0.0
300.000000
0.500000
461
8
82.814628
8.952840
#DATA
300.000000	80.805999 
300.500000	79.824151 
301.000000	78.964590 
301.500000	78.281909 
302.000000	77.825348 
302.500000	77.343439 
303.000000	76.848575 
303.500000	76.215492 
304.000000	75.645901 
304.500000	74.962106 
305.000000	74.302924 
305.500000	73.643696 
306.000000	73.189840 
306.500000	72.667749 
307.000000	72.088916 
307.500000	71.354257 
308.000000	70.739227 
308.500000	70.249075 
309.000000	70.039439 
309.500000	69.971280 
310.000000	69.909469 
310.500000	69.721303 
311.000000	69.583969 
311.500000	69.541886 
312.000000	69.462537 
312.500000	69.157401 
313.000000	68.628492 
313.500000	67.830234 
314.000000	66.797560 
314.500000	65.661098 
315.000000	64.512287 
315.500000	63.374143 
316.000000	62.353598 
316.500000	61.632606 
317.000000	61.115613 
317.500000	60.594227 
318.000000	60.040545 
318.500000	59.617204 
319.000000	59.367106 
319.500000	59.159136 
320.000000	58.877560 
320.500000	58.530553 
321.000000	58.211462 
321.500000	57.920022 
322.000000	57.592227 
322.500000	57.162681 
323.000000	56.873636 
323.500000	56.745560 
324.000000	56.724227 
324.500000	56.549719 
325.000000	56.389749 
325.500000	56.342030 
326.000000	56.407015 
326.500000	56.433848 
327.000000	56.345174 
327.500000	56.194560 
328.000000	56.024545 
328.500000	55.898530 
329.000000	55.836878 
329.500000	55.847636 
330.000000	55.779393 
330.500000	55.625212 
331.000000	55.456196 
331.500000	55.407219 
332.000000	55.437946 
332.500000	55.549166 
333.000000	55.638863 
333.500000	55.763189 
334.000000	55.799901 
334.500000	55.859719 
335.000000	55.877181 
335.500000	55.858666 
336.000000	55.784143 
336.500000	55.760166 
337.000000	55.793007 
337.500000	55.885106 
338.000000	55.985871 
338.500000	56.126143 
339.000000	56.210007 
339.500000	56.357000 
340.000000	56.547893 
340.500000	56.748848 
341.000000	56.915651 
341.500000	57.155037 
342.000000	57.391628 
342.500000	57.622151 
343.000000	57.847340 
343.500000	58.135704 
344.000000	58.418234 
344.500000	58.609575 
345.000000	58.793363 
345.500000	59.076303 
346.000000	59.285886 
346.500000	59.478560 
347.000000	59.644560 
347.500000	60.038833 
348.000000	60.477651 
348.500000	61.002492 
349.000000	61.391954 
349.500000	61.857999 
350.000000	62.214984 
350.500000	62.588212 
351.000000	62.950553 
351.500000	63.359492 
352.000000	63.673121 
352.500000	63.976000 
353.000000	64.321340 
353.500000	64.713022 
354.000000	65.101431 
354.500000	65.506939 
355.000000	65.946363 
355.500000	66.401492 
356.000000	66.879886 
356.500000	67.352234 
357.000000	67.884666 
357.500000	68.339401 
358.000000	68.759257 
358.500000	69.029719 
359.000000	69.321090 
359.500000	69.748939 
360.000000	70.416356 
360.500000	70.994734 
361.000000	71.478249 
361.500000	72.008068 
362.000000	72.660765 
362.500000	73.295583 
363.000000	73.810636 
363.500000	74.351780 
364.000000	74.880098 
364.500000	75.375007 
365.000000	75.717696 
365.500000	76.062393 
366.000000	76.425969 
366.500000	76.730439 
367.000000	76.937878 
367.500000	77.074015 
368.000000	77.359787 
368.500000	77.781409 
369.000000	78.176484 
369.500000	78.309757 
370.000000	78.358030 
370.500000	78.591515 
371.000000	79.024954 
371.500000	79.578469 
372.000000	80.050545 
372.500000	80.487643 
373.000000	80.961424 
373.500000	81.539886 
374.000000	82.065333 
374.500000	82.504840 
375.000000	82.747416 
375.500000	82.814628 
376.000000	82.531916 
376.500000	82.019840 
377.000000	81.192765 
377.500000	80.200909 
378.000000	78.906590 
378.500000	77.649136 
379.000000	76.455242 
379.500000	75.407575 
380.000000	74.373363 
380.500000	73.538787 
381.000000	72.907310 
381.500000	72.343795 
382.000000	71.714734 
382.500000	71.055212 
383.000000	70.498840 
383.500000	70.016659 
384.000000	69.528772 
384.500000	68.963378 
385.000000	68.400484 
385.500000	67.851712 
386.000000	67.311886 
386.500000	66.712795 
387.000000	66.003712 
387.500000	65.281356 
388.000000	64.587098 
388.500000	63.967181 
389.000000	63.366333 
389.500000	62.821568 
390.000000	62.297265 
390.500000	61.796643 
391.000000	61.250060 
391.500000	60.735530 
392.000000	60.279734 
392.500000	59.825787 
393.000000	59.313500 
393.500000	58.698810 
394.000000	58.177500 
394.500000	57.794590 
395.000000	57.488598 
395.500000	57.070696 
396.000000	56.597643 
396.500000	56.113015 
397.000000	55.674303 
397.500000	55.091840 
398.000000	54.430030 
398.500000	53.907719 
399.000000	53.579386 
399.500000	53.301734 
400.000000	52.865886 
400.500000	52.233143 
401.000000	51.610651 
401.500000	51.119318 
402.000000	50.590166 
402.500000	49.936674 
403.000000	49.333227 
403.500000	48.981962 
404.000000	48.711098 
404.500000	48.287803 
405.000000	47.793613 
405.500000	47.422818 
406.000000	47.122931 
406.500000	46.912045 
407.000000	46.840378 
407.500000	46.924863 
408.000000	47.014356 
408.500000	47.222621 
409.000000	47.335856 
409.500000	46.572181 
410.000000	44.692022 
410.500000	42.619575 
411.000000	41.381893 
411.500000	40.924045 
412.000000	40.677530 
412.500000	40.382416 
413.000000	40.162575 
413.500000	39.859159 
414.000000	39.497590 
414.500000	39.225863 
415.000000	38.953840 
415.500000	38.569613 
416.000000	38.058803 
416.500000	37.502409 
417.000000	36.945022 
417.500000	36.346007 
418.000000	35.664424 
418.500000	34.919378 
419.000000	34.147530 
419.500000	33.373795 
420.000000	32.685840 
420.500000	32.080121 
421.000000	31.575015 
421.500000	31.030280 
422.000000	30.431424 
422.500000	29.829454 
423.000000	29.324143 
423.500000	28.844704 
424.000000	28.355590 
424.500000	27.824901 
425.000000	27.306613 
425.500000	26.789416 
426.000000	26.242659 
426.500000	25.633613 
427.000000	24.945424 
427.500000	24.263469 
428.000000	23.633901 
428.500000	23.100045 
429.000000	22.524409 
429.500000	21.885378 
430.000000	21.181674 
430.500000	20.514772 
431.000000	19.862750 
431.500000	19.225871 
432.000000	18.670696 
432.500000	18.192833 
433.000000	17.734878 
433.500000	17.226295 
434.000000	16.730962 
434.500000	16.288924 
435.000000	15.909053 
435.500000	15.530242 
436.000000	15.122893 
436.500000	14.742659 
437.000000	14.387143 
437.500000	14.067689 
438.000000	13.753424 
438.500000	13.463803 
439.000000	13.197977 
439.500000	12.938780 
440.000000	12.726469 
440.500000	12.555212 
441.000000	12.384219 
441.500000	12.146424 
442.000000	11.890659 
442.500000	11.680250 
443.000000	11.491015 
443.500000	11.287931 
444.000000	11.089734 
444.500000	10.928575 
445.000000	10.794734 
445.500000	10.693045 
446.000000	10.606272 
446.500000	10.533931 
447.000000	10.460424 
447.500000	10.379772 
448.000000	10.296666 
448.500000	10.225863 
449.000000	10.205030 
449.500000	10.247871 
450.000000	10.269348 
450.500000	10.237810 
451.000000	10.169916 
451.500000	10.106757 
452.000000	10.038143 
452.500000	9.970681  
453.000000	9.933030  
453.500000	9.977393  
454.000000	10.073810 
454.500000	10.117090 
455.000000	10.106393 
455.500000	10.056568 
456.000000	10.060363 
456.500000	10.052750 
457.000000	10.027159 
457.500000	9.993537  
458.000000	10.011318 
458.500000	10.039265 
459.000000	10.044303 
459.500000	10.061234 
460.000000	10.097765 
460.500000	10.131242 
461.000000	10.105022 
461.500000	10.056651 
462.000000	10.026113 
462.500000	10.013189 
463.000000	9.983734  
463.500000	9.918303  
464.000000	9.886416  
464.500000	9.892204  
465.000000	9.900568  
465.500000	9.866643  
466.000000	9.860909  
466.500000	9.932409  
467.000000	10.059015 
467.500000	10.177530 
468.000000	10.250287 
468.500000	10.310272 
469.000000	10.347401 
469.500000	10.393174 
470.000000	10.381333 
470.500000	10.325439 
471.000000	10.229424 
471.500000	10.172462 
472.000000	10.108272 
472.500000	10.017969 
473.000000	9.886848  
473.500000	9.791181  
474.000000	9.717856  
474.500000	9.679727  
475.000000	9.618416  
475.500000	9.554750  
476.000000	9.493901  
476.500000	9.477166  
477.000000	9.487984  
477.500000	9.516037  
478.000000	9.533234  
478.500000	9.545954  
479.000000	9.539401  
479.500000	9.478818  
480.000000	9.336598  
480.500000	9.179416  
481.000000	9.069113  
481.500000	9.048424  
482.000000	9.023712  
482.500000	8.984704  
483.000000	8.952840  
483.500000	8.987643  
484.000000	9.064356  
484.500000	9.158924  
485.000000	9.291128  
485.500000	9.406825  
486.000000	9.463045  
486.500000	9.431318  
487.000000	9.395257  
487.500000	9.376234  
488.000000	9.416477  
488.500000	9.477318  
489.000000	9.512454  
489.500000	9.496840  
490.000000	9.443795  
490.500000	9.426590  
491.000000	9.450416  
491.500000	9.540227  
492.000000	9.619659  
492.500000	9.688318  
493.000000	9.704636  
493.500000	9.750704  
494.000000	9.798621  
494.500000	9.867242  
495.000000	9.935151  
495.500000	9.990492  
496.000000	9.989946  
496.500000	9.979303  
497.000000	9.990560  
497.500000	9.989742  
498.000000	10.010636 
498.500000	10.085477 
499.000000	10.205492 
499.500000	10.242393 
500.000000	10.214424 
500.500000	10.248212 
501.000000	10.333189 
501.500000	10.380166 
502.000000	10.363250 
502.500000	10.365174 
503.000000	10.390992 
503.500000	10.396712 
504.000000	10.366871 
504.500000	10.385765 
505.000000	10.454560 
505.500000	10.483325 
506.000000	10.444984 
506.500000	10.396568 
507.000000	10.446643 
507.500000	10.539553 
508.000000	10.583204 
508.500000	10.568386 
509.000000	10.571992 
509.500000	10.598704 
510.000000	10.623651 
510.500000	10.655871 
511.000000	10.765530 
511.500000	10.957272 
512.000000	11.104992 
512.500000	11.153371 
513.000000	11.125151 
513.500000	11.114560 
514.000000	11.138530 
514.500000	11.195393 
515.000000	11.208893 
515.500000	11.207318 
516.000000	11.230840 
516.500000	11.331431 
517.000000	11.437045 
517.500000	11.492742 
518.000000	11.527681 
518.500000	11.624333 
519.000000	11.752265 
519.500000	11.857022 
520.000000	11.962204 
520.500000	12.076386 
521.000000	12.191727 
521.500000	12.285613 
522.000000	12.345901 
522.500000	12.402666 
523.000000	12.436068 
523.500000	12.408098 
524.000000	12.320174 
524.500000	12.275772 
525.000000	12.325833 
525.500000	12.443280 
526.000000	12.525439 
526.500000	12.542401 
527.000000	12.567500 
527.500000	12.646659 
528.000000	12.810765 
528.500000	13.052227 
529.000000	13.286560 
529.500000	13.356409 
530.000000	13.253000 

