PE FL                   SPECTRUM    ASCII       PEDS        1.60        
  -1
01#177.SP
02/03/18
04:26:02.00
02/03/18
04:28:17.00


470.000000
1









LS55
503.00
5.00
5.00
SCAN
1
20
100
100
0
100
0
0
0
1
7
ON
650 373 
1 0 0
#HDR
-1
-1
#GR
NM

0.00002384185791015625
0.0
270.000000
0.500000
401
8
103.760696
20.445537
#DATA
270.000000	88.858999  
270.500000	86.512742  
271.000000	84.411681  
271.500000	82.618113  
272.000000	81.013795  
272.500000	79.370545  
273.000000	77.739553  
273.500000	76.092053  
274.000000	74.627954  
274.500000	73.285090  
275.000000	72.153181  
275.500000	71.017931  
276.000000	69.908083  
276.500000	68.746484  
277.000000	67.641833  
277.500000	66.541053  
278.000000	65.311606  
278.500000	63.922159  
279.000000	62.281348  
279.500000	60.328143  
280.000000	58.225106  
280.500000	56.303477  
281.000000	54.566825  
281.500000	52.843848  
282.000000	51.089636  
282.500000	49.529431  
283.000000	48.254886  
283.500000	47.284939  
284.000000	46.543393  
284.500000	46.006234  
285.000000	45.474499  
285.500000	44.922022  
286.000000	44.318863  
286.500000	43.801090  
287.000000	43.415000  
287.500000	43.066909  
288.000000	42.559537  
288.500000	41.977954  
289.000000	41.451848  
289.500000	41.177265  
290.000000	40.985727  
290.500000	40.802825  
291.000000	40.456674  
291.500000	40.096939  
292.000000	39.681878  
292.500000	39.371848  
293.000000	39.095265  
293.500000	39.033863  
294.000000	39.070871  
294.500000	39.252909  
295.000000	39.495325  
295.500000	40.055689  
296.000000	40.746962  
296.500000	41.588553  
297.000000	42.580689  
297.500000	43.870643  
298.000000	45.217272  
298.500000	46.477030  
299.000000	47.614151  
299.500000	48.847159  
300.000000	50.086750  
300.500000	51.270386  
301.000000	52.303818  
301.500000	53.260378  
302.000000	54.036598  
302.500000	54.785053  
303.000000	55.584628  
303.500000	56.509318  
304.000000	57.345356  
304.500000	57.924522  
305.000000	58.287825  
305.500000	58.562825  
306.000000	58.836522  
306.500000	59.038992  
307.000000	59.192401  
307.500000	59.251757  
308.000000	59.336143  
308.500000	59.468340  
309.000000	59.699863  
309.500000	59.964401  
310.000000	60.128795  
310.500000	60.114621  
311.000000	60.069174  
311.500000	60.226537  
312.000000	60.577621  
312.500000	60.879969  
313.000000	60.978204  
313.500000	60.896477  
314.000000	60.790280  
314.500000	60.694371  
315.000000	60.658128  
315.500000	60.713181  
316.000000	60.838075  
316.500000	60.922643  
317.000000	60.882303  
317.500000	60.870053  
318.000000	60.940818  
318.500000	61.106939  
319.000000	61.153886  
319.500000	61.087386  
320.000000	61.081090  
320.500000	61.219969  
321.000000	61.360272  
321.500000	61.414340  
322.000000	61.480128  
322.500000	61.616166  
323.000000	61.702212  
323.500000	61.682234  
324.000000	61.723090  
324.500000	62.005265  
325.000000	62.408810  
325.500000	62.751356  
326.000000	62.910575  
326.500000	62.968810  
327.000000	63.038045  
327.500000	63.120060  
328.000000	63.166984  
328.500000	63.288318  
329.000000	63.557386  
329.500000	63.933454  
330.000000	64.242840  
330.500000	64.517219  
331.000000	64.767083  
331.500000	65.061121  
332.000000	65.338757  
332.500000	65.524537  
333.000000	65.612659  
333.500000	65.806962  
334.000000	66.150219  
334.500000	66.503628  
335.000000	66.762598  
335.500000	67.019651  
336.000000	67.335409  
336.500000	67.678507  
337.000000	68.049015  
337.500000	68.529568  
338.000000	69.005901  
338.500000	69.401583  
339.000000	69.741181  
339.500000	70.134621  
340.000000	70.546712  
340.500000	71.033530  
341.000000	71.547121  
341.500000	72.103174  
342.000000	72.577992  
342.500000	72.928227  
343.000000	73.237734  
343.500000	73.678696  
344.000000	74.295810  
344.500000	74.882848  
345.000000	75.424757  
345.500000	75.883810  
346.000000	76.362083  
346.500000	76.732886  
347.000000	77.179060  
347.500000	77.689749  
348.000000	78.255484  
348.500000	78.776181  
349.000000	79.305409  
349.500000	79.796886  
350.000000	80.248477  
350.500000	80.732295  
351.000000	81.249121  
351.500000	81.800159  
352.000000	82.321772  
352.500000	82.920325  
353.000000	83.448803  
353.500000	83.819363  
354.000000	84.072583  
354.500000	84.462136  
355.000000	85.006780  
355.500000	85.638121  
356.000000	86.169045  
356.500000	86.644863  
357.000000	87.059833  
357.500000	87.426939  
358.000000	87.882522  
358.500000	88.452242  
359.000000	89.166931  
359.500000	89.762060  
360.000000	90.354265  
360.500000	90.763060  
361.000000	91.114477  
361.500000	91.231416  
362.000000	91.515227  
362.500000	91.875106  
363.000000	92.280462  
363.500000	92.542560  
364.000000	92.953484  
364.500000	93.566075  
365.000000	94.291901  
365.500000	94.939424  
366.000000	95.628371  
366.500000	96.469810  
367.000000	97.332674  
367.500000	98.103378  
368.000000	98.922636  
368.500000	100.055356 
369.000000	101.342598 
369.500000	102.579492 
370.000000	103.369492 
370.500000	103.760696 
371.000000	103.750333 
371.500000	103.574621 
372.000000	103.148651 
372.500000	102.365333 
373.000000	101.075189 
373.500000	99.463257  
374.000000	97.692454  
374.500000	95.840636  
375.000000	94.015143  
375.500000	92.156598  
376.000000	90.474643  
376.500000	88.981265  
377.000000	87.800848  
377.500000	86.680325  
378.000000	85.731962  
378.500000	84.900462  
379.000000	84.194363  
379.500000	83.452469  
380.000000	82.762371  
380.500000	82.195431  
381.000000	81.634174  
381.500000	80.977977  
382.000000	80.214848  
382.500000	79.555060  
383.000000	79.009946  
383.500000	78.442431  
384.000000	77.758530  
384.500000	77.027371  
385.000000	76.324651  
385.500000	75.585053  
386.000000	74.717856  
386.500000	73.843128  
387.000000	73.079469  
387.500000	72.407522  
388.000000	71.630810  
388.500000	70.824477  
389.000000	69.919280  
389.500000	68.973113  
390.000000	68.013492  
390.500000	67.206386  
391.000000	66.460712  
391.500000	65.673409  
392.000000	64.733969  
392.500000	63.719924  
393.000000	62.711106  
393.500000	61.616484  
394.000000	60.477234  
394.500000	59.265780  
395.000000	58.130840  
395.500000	57.130242  
396.000000	56.268242  
396.500000	55.315856  
397.000000	54.191196  
397.500000	53.007734  
398.000000	51.968356  
398.500000	51.075151  
399.000000	50.157363  
399.500000	49.151810  
400.000000	48.092159  
400.500000	47.016545  
401.000000	46.038166  
401.500000	45.125863  
402.000000	44.281431  
402.500000	43.436401  
403.000000	42.628371  
403.500000	41.879280  
404.000000	41.147568  
404.500000	40.420242  
405.000000	39.710242  
405.500000	39.161848  
406.000000	38.654651  
406.500000	38.124181  
407.000000	37.429416  
407.500000	36.810333  
408.000000	36.252742  
408.500000	35.745371  
409.000000	35.102909  
409.500000	34.384666  
410.000000	33.601704  
410.500000	32.841446  
411.000000	32.173742  
411.500000	31.681053  
412.000000	31.317143  
412.500000	30.998333  
413.000000	30.666045  
413.500000	30.273931  
414.000000	29.903257  
414.500000	29.637454  
415.000000	29.462227  
415.500000	29.246628  
416.000000	28.932833  
416.500000	28.595174  
417.000000	28.372674  
417.500000	28.332598  
418.000000	28.365234  
418.500000	28.310204  
419.000000	28.046628  
419.500000	27.646166  
420.000000	27.237621  
420.500000	26.951196  
421.000000	26.764022  
421.500000	26.561128  
422.000000	26.236303  
422.500000	25.831856  
423.000000	25.460901  
423.500000	25.138007  
424.000000	24.930227  
424.500000	24.738333  
425.000000	24.573598  
425.500000	24.412030  
426.000000	24.359924  
426.500000	24.245348  
427.000000	24.057196  
427.500000	23.797750  
428.000000	23.666674  
428.500000	23.607560  
429.000000	23.495825  
429.500000	23.240219  
430.000000	22.908969  
430.500000	22.641469  
431.000000	22.511469  
431.500000	22.401219  
432.000000	22.240848  
432.500000	22.120825  
433.000000	22.150401  
433.500000	22.165318  
434.000000	22.065363  
434.500000	21.854121  
435.000000	21.713401  
435.500000	21.659250  
436.000000	21.612310  
436.500000	21.511015  
437.000000	21.371674  
437.500000	21.282151  
438.000000	21.226083  
438.500000	21.196939  
439.000000	21.114590  
439.500000	21.006106  
440.000000	20.851000  
440.500000	20.716166  
441.000000	20.632280  
441.500000	20.578250  
442.000000	20.537606  
442.500000	20.533136  
443.000000	20.571500  
443.500000	20.573098  
444.000000	20.534136  
444.500000	20.488022  
445.000000	20.459166  
445.500000	20.445537  
446.000000	20.473674  
446.500000	20.545984  
447.000000	20.637181  
447.500000	20.751037  
448.000000	20.905075  
448.500000	21.022265  
449.000000	21.013727  
449.500000	20.948780  
450.000000	20.962303  
450.500000	21.095575  
451.000000	21.196992  
451.500000	21.284340  
452.000000	21.333886  
452.500000	21.414303  
453.000000	21.429795  
453.500000	21.465227  
454.000000	21.523045  
454.500000	21.617098  
455.000000	21.620454  
455.500000	21.530727  
456.000000	21.423174  
456.500000	21.341659  
457.000000	21.314583  
457.500000	21.275598  
458.000000	21.252568  
458.500000	21.323015  
459.000000	21.567977  
459.500000	21.867409  
460.000000	22.122787  
460.500000	22.243757  
461.000000	22.389090  
461.500000	22.625348  
462.000000	22.996022  
462.500000	23.331462  
463.000000	23.556984  
463.500000	23.585681  
464.000000	23.572325  
464.500000	23.592060  
465.000000	23.760106  
465.500000	24.015628  
466.000000	24.244833  
466.500000	24.457643  
467.000000	24.753068  
467.500000	25.149681  
468.000000	25.548606  
468.500000	25.928606  
469.000000	26.348734  
469.500000	26.904204  
470.000000	27.524000  

