PE FL                   SPECTRUM    ASCII       PEDS        1.60        
  -1
01#173.SP
02/03/18
04:13:10.00
02/03/18
04:16:03.00


650.000000
1









LS55
360.00
5.00
5.00
SCAN
1
20
100
100
0
100
0
1
0
1
7
ON
650 360 
1 0 0
#HDR
-1
-1
#GR
NM

0.00002384185791015625
0.0
380.000000
0.500000
541
8
102.653234
35.882643
#DATA
380.000000	76.079000  
380.500000	74.830636  
381.000000	73.290825  
381.500000	71.463045  
382.000000	69.694545  
382.500000	68.215984  
383.000000	67.067257  
383.500000	66.044090  
384.000000	65.009696  
384.500000	63.948909  
385.000000	63.071689  
385.500000	62.166742  
386.000000	61.313984  
386.500000	60.612189  
387.000000	60.298401  
387.500000	60.005363  
388.000000	59.547893  
388.500000	58.924613  
389.000000	58.444500  
389.500000	58.011636  
390.000000	57.503893  
390.500000	56.820969  
391.000000	56.049174  
391.500000	55.290969  
392.000000	54.554113  
392.500000	53.786984  
393.000000	52.898257  
393.500000	51.978401  
394.000000	51.112250  
394.500000	50.377136  
395.000000	49.615689  
395.500000	48.864477  
396.000000	48.139325  
396.500000	47.638962  
397.000000	47.365143  
397.500000	47.266575  
398.000000	47.233272  
398.500000	47.152234  
399.000000	47.051742  
399.500000	46.875750  
400.000000	46.757992  
400.500000	46.758310  
401.000000	46.976787  
401.500000	47.156128  
402.000000	47.224977  
402.500000	47.282401  
403.000000	47.499833  
403.500000	47.779257  
404.000000	47.890818  
404.500000	47.897742  
405.000000	47.971098  
405.500000	48.194136  
406.000000	48.415484  
406.500000	48.634196  
407.000000	48.865159  
407.500000	49.106719  
408.000000	49.255522  
408.500000	49.337856  
409.000000	49.433310  
409.500000	49.583507  
410.000000	49.812106  
410.500000	50.097325  
411.000000	50.431439  
411.500000	50.696810  
412.000000	50.834530  
412.500000	50.941045  
413.000000	51.179265  
413.500000	51.592674  
414.000000	52.026530  
414.500000	52.346575  
415.000000	52.474568  
415.500000	52.633250  
416.000000	52.840522  
416.500000	53.115878  
417.000000	53.364272  
417.500000	53.752462  
418.000000	54.260295  
418.500000	54.824462  
419.000000	55.169530  
419.500000	55.380863  
420.000000	55.569090  
420.500000	55.822575  
421.000000	56.065083  
421.500000	56.291363  
422.000000	56.586431  
422.500000	56.982295  
423.000000	57.399621  
423.500000	57.700477  
424.000000	57.948128  
424.500000	58.293333  
425.000000	58.732166  
425.500000	59.224151  
426.000000	59.704378  
426.500000	60.161143  
427.000000	60.520621  
427.500000	60.956765  
428.000000	61.498901  
428.500000	62.092507  
429.000000	62.578159  
429.500000	63.054189  
430.000000	63.616348  
430.500000	64.168954  
431.000000	64.599378  
431.500000	65.070310  
432.000000	65.594984  
432.500000	66.043984  
433.000000	66.263083  
433.500000	66.324196  
434.000000	66.405030  
434.500000	66.553166  
435.000000	66.689053  
435.500000	66.760765  
436.000000	66.868742  
436.500000	67.013969  
437.000000	67.190151  
437.500000	67.286015  
438.000000	67.406090  
438.500000	67.543075  
439.000000	67.642893  
439.500000	67.667045  
440.000000	67.779181  
440.500000	68.035772  
441.000000	68.354083  
441.500000	68.702128  
442.000000	69.089575  
442.500000	69.452060  
443.000000	69.732265  
443.500000	69.977098  
444.000000	70.243500  
444.500000	70.428318  
445.000000	70.574909  
445.500000	70.833893  
446.000000	71.221499  
446.500000	71.618151  
447.000000	71.966643  
447.500000	72.306878  
448.000000	72.499053  
448.500000	72.598007  
449.000000	72.781409  
449.500000	73.142628  
450.000000	73.334189  
450.500000	73.263280  
451.000000	73.213166  
451.500000	73.477613  
452.000000	73.939787  
452.500000	74.338060  
453.000000	74.665749  
453.500000	74.997992  
454.000000	75.241431  
454.500000	75.414280  
455.000000	75.683575  
455.500000	76.179674  
456.000000	76.798628  
456.500000	77.362636  
457.000000	77.678204  
457.500000	77.899681  
458.000000	78.098507  
458.500000	78.349340  
459.000000	78.460454  
459.500000	78.386454  
460.000000	78.136643  
460.500000	77.927977  
461.000000	77.750818  
461.500000	77.732568  
462.000000	77.718893  
462.500000	77.674969  
463.000000	77.575098  
463.500000	77.674287  
464.000000	77.893689  
464.500000	78.366871  
465.000000	78.814393  
465.500000	79.265500  
466.000000	79.551537  
466.500000	79.844257  
467.000000	80.197204  
467.500000	80.612916  
468.000000	81.011886  
468.500000	81.322015  
469.000000	81.592659  
469.500000	81.813909  
470.000000	82.111689  
470.500000	82.368833  
471.000000	82.566590  
471.500000	82.673234  
472.000000	82.695749  
472.500000	82.737234  
473.000000	82.741128  
473.500000	82.690628  
474.000000	82.501219  
474.500000	82.315098  
475.000000	82.185128  
475.500000	82.118590  
476.000000	82.021393  
476.500000	81.850833  
477.000000	81.654962  
477.500000	81.486007  
478.000000	81.616295  
478.500000	82.037325  
479.000000	82.523454  
479.500000	82.878280  
480.000000	83.368454  
480.500000	84.349651  
481.000000	85.862469  
481.500000	87.700674  
482.000000	89.582159  
482.500000	91.473803  
483.000000	93.466121  
483.500000	95.631424  
484.000000	97.674431  
484.500000	99.421765  
485.000000	100.728606 
485.500000	101.681977 
486.000000	102.263674 
486.500000	102.622833 
487.000000	102.653234 
487.500000	102.415378 
488.000000	101.623840 
488.500000	100.657681 
489.000000	99.615780  
489.500000	98.589863  
490.000000	97.368371  
490.500000	96.125969  
491.000000	94.889250  
491.500000	93.739780  
492.000000	92.550287  
492.500000	91.315795  
493.000000	90.098522  
493.500000	88.880681  
494.000000	87.763462  
494.500000	86.828833  
495.000000	86.109643  
495.500000	85.399984  
496.000000	84.552022  
496.500000	83.634204  
497.000000	82.962613  
497.500000	82.650310  
498.000000	82.507272  
498.500000	82.269780  
499.000000	81.996719  
499.500000	81.813810  
500.000000	81.717484  
500.500000	81.581401  
501.000000	81.388765  
501.500000	81.299060  
502.000000	81.412818  
502.500000	81.601234  
503.000000	81.701189  
503.500000	81.718772  
504.000000	81.757757  
504.500000	81.949984  
505.000000	82.168916  
505.500000	82.280878  
506.000000	82.217696  
506.500000	82.207583  
507.000000	82.308962  
507.500000	82.464560  
508.000000	82.418681  
508.500000	82.302924  
509.000000	82.237583  
509.500000	82.288363  
510.000000	82.327204  
510.500000	82.326583  
511.000000	82.190893  
511.500000	82.067053  
512.000000	81.979090  
512.500000	81.952159  
513.000000	81.791795  
513.500000	81.572537  
514.000000	81.342674  
514.500000	81.238424  
515.000000	81.060909  
515.500000	80.713583  
516.000000	80.467810  
516.500000	80.432939  
517.000000	80.531083  
517.500000	80.436553  
518.000000	80.271939  
518.500000	80.111333  
519.000000	79.929803  
519.500000	79.637037  
520.000000	79.381522  
520.500000	79.236060  
521.000000	79.078143  
521.500000	78.854484  
522.000000	78.517401  
522.500000	78.059674  
523.000000	77.561537  
523.500000	77.168113  
524.000000	76.964507  
524.500000	76.770015  
525.000000	76.454787  
525.500000	76.016068  
526.000000	75.667992  
526.500000	75.560113  
527.000000	75.569818  
527.500000	75.379696  
528.000000	75.026939  
528.500000	74.612492  
529.000000	74.274999  
529.500000	73.888901  
530.000000	73.597287  
530.500000	73.315128  
531.000000	73.047833  
531.500000	72.770545  
532.000000	72.632833  
532.500000	72.562886  
533.000000	72.373022  
533.500000	72.036212  
534.000000	71.649499  
534.500000	71.364939  
535.000000	71.180863  
535.500000	71.084628  
536.000000	70.988484  
536.500000	70.810840  
537.000000	70.665060  
537.500000	70.453530  
538.000000	70.150727  
538.500000	69.794530  
539.000000	69.615818  
539.500000	69.524242  
540.000000	69.457484  
540.500000	69.361871  
541.000000	69.346257  
541.500000	69.289174  
542.000000	69.040704  
542.500000	68.692803  
543.000000	68.441507  
543.500000	68.312462  
544.000000	68.224060  
544.500000	68.109886  
545.000000	67.918007  
545.500000	67.703219  
546.000000	67.508916  
546.500000	67.342303  
547.000000	67.144287  
547.500000	66.965378  
548.000000	66.888969  
548.500000	66.879045  
549.000000	66.796886  
549.500000	66.606318  
550.000000	66.456325  
550.500000	66.319674  
551.000000	66.140598  
551.500000	65.849681  
552.000000	65.563863  
552.500000	65.285340  
553.000000	65.148757  
553.500000	65.078234  
554.000000	65.079287  
554.500000	65.053492  
555.000000	64.893446  
555.500000	64.630045  
556.000000	64.359931  
556.500000	64.207553  
557.000000	63.957325  
557.500000	63.647098  
558.000000	63.351204  
558.500000	63.243227  
559.000000	63.128606  
559.500000	62.997037  
560.000000	62.772075  
560.500000	62.442363  
561.000000	62.096234  
561.500000	61.828765  
562.000000	61.716666  
562.500000	61.634742  
563.000000	61.531037  
563.500000	61.387651  
564.000000	61.193939  
564.500000	60.976022  
565.000000	60.804219  
565.500000	60.659530  
566.000000	60.513924  
566.500000	60.460704  
567.000000	60.389992  
567.500000	60.147810  
568.000000	59.808348  
568.500000	59.529780  
569.000000	59.373871  
569.500000	59.200439  
570.000000	58.986901  
570.500000	58.819257  
571.000000	58.723037  
571.500000	58.642037  
572.000000	58.486984  
572.500000	58.284810  
573.000000	58.043310  
573.500000	57.778530  
574.000000	57.598348  
574.500000	57.434204  
575.000000	57.322909  
575.500000	57.111621  
576.000000	56.885886  
576.500000	56.561439  
577.000000	56.367439  
577.500000	56.218310  
578.000000	56.110053  
578.500000	55.918924  
579.000000	55.716499  
579.500000	55.508295  
580.000000	55.278393  
580.500000	54.966189  
581.000000	54.796060  
581.500000	54.607083  
582.000000	54.414492  
582.500000	54.041765  
583.000000	53.735772  
583.500000	53.450212  
584.000000	53.336924  
584.500000	53.108636  
585.000000	52.875068  
585.500000	52.605590  
586.000000	52.426113  
586.500000	52.260325  
587.000000	52.083507  
587.500000	51.826568  
588.000000	51.613522  
588.500000	51.351575  
589.000000	51.126000  
589.500000	50.941295  
590.000000	50.859310  
590.500000	50.824234  
591.000000	50.754643  
591.500000	50.538265  
592.000000	50.316477  
592.500000	50.177295  
593.000000	49.962537  
593.500000	49.594856  
594.000000	49.254007  
594.500000	49.103212  
595.000000	49.186446  
595.500000	49.236840  
596.000000	49.268515  
596.500000	49.091886  
597.000000	48.872704  
597.500000	48.596507  
598.000000	48.441121  
598.500000	48.194530  
599.000000	47.925280  
599.500000	47.620681  
600.000000	47.394757  
600.500000	47.251303  
601.000000	47.233757  
601.500000	47.192416  
602.000000	47.023083  
602.500000	46.749462  
603.000000	46.593083  
603.500000	46.464621  
604.000000	46.388249  
604.500000	46.245878  
605.000000	46.162106  
605.500000	45.967121  
606.000000	45.754825  
606.500000	45.460833  
607.000000	45.284219  
607.500000	45.189431  
608.000000	45.138734  
608.500000	44.947318  
609.000000	44.688212  
609.500000	44.525318  
610.000000	44.408424  
610.500000	44.255878  
611.000000	44.022022  
611.500000	43.819075  
612.000000	43.636196  
612.500000	43.458878  
613.000000	43.292204  
613.500000	43.156674  
614.000000	43.046174  
614.500000	42.989303  
615.000000	42.917212  
615.500000	42.693992  
616.000000	42.381893  
616.500000	42.182689  
617.000000	42.087113  
617.500000	41.973446  
618.000000	41.778719  
618.500000	41.617613  
619.000000	41.486924  
619.500000	41.368333  
620.000000	41.233742  
620.500000	41.154734  
621.000000	41.084022  
621.500000	41.033174  
622.000000	40.948249  
622.500000	40.810795  
623.000000	40.599265  
623.500000	40.427924  
624.000000	40.290386  
624.500000	40.154931  
625.000000	39.998515  
625.500000	39.848719  
626.000000	39.654128  
626.500000	39.448946  
627.000000	39.260106  
627.500000	39.156878  
628.000000	38.972219  
628.500000	38.687469  
629.000000	38.418363  
629.500000	38.293446  
630.000000	38.202742  
630.500000	38.137272  
631.000000	38.091106  
631.500000	38.099098  
632.000000	37.968560  
632.500000	37.772128  
633.000000	37.578181  
633.500000	37.494106  
634.000000	37.385590  
634.500000	37.220954  
635.000000	36.953045  
635.500000	36.737583  
636.000000	36.634643  
636.500000	36.646674  
637.000000	36.650863  
637.500000	36.634628  
638.000000	36.608734  
638.500000	36.555696  
639.000000	36.336681  
639.500000	36.078477  
640.000000	35.909068  
640.500000	35.882643  
641.000000	35.945454  
641.500000	36.057757  
642.000000	36.139492  
642.500000	36.145500  
643.000000	36.098560  
643.500000	36.137742  
644.000000	36.252939  
644.500000	36.331803  
645.000000	36.347007  
645.500000	36.376825  
646.000000	36.408022  
646.500000	36.414378  
647.000000	36.458431  
647.500000	36.503363  
648.000000	36.525780  
648.500000	36.443015  
649.000000	36.354939  
649.500000	36.251234  
650.000000	36.127000  

