PE FL                   SPECTRUM    ASCII       PEDS        1.60        
  -1
01#233.SP
02/03/21
23:44:49.00
02/03/21
23:47:00.00


600.000000
1









LS55
365.00
5.00
5.00
SCAN
1
20
100
100
0
100
0
1
0
1
7
ON
450 400 
1 0 0
#HDR
-1
-1
#GR
NM

0.00002384185791015625
0.0
390.000000
0.500000
421
8
21.126083
1.387946
#DATA
390.000000	12.717000 
390.500000	12.687303 
391.000000	12.679931 
391.500000	12.708530 
392.000000	12.735780 
392.500000	12.838484 
393.000000	12.979696 
393.500000	13.114083 
394.000000	13.192030 
394.500000	13.282196 
395.000000	13.340780 
395.500000	13.334560 
396.000000	13.316159 
396.500000	13.377969 
397.000000	13.534106 
397.500000	13.742901 
398.000000	13.916325 
398.500000	14.076310 
399.000000	14.176553 
399.500000	14.290606 
400.000000	14.393984 
400.500000	14.559962 
401.000000	14.715583 
401.500000	14.892393 
402.000000	15.043689 
402.500000	15.192242 
403.000000	15.369863 
403.500000	15.587000 
404.000000	15.861098 
404.500000	16.103712 
405.000000	16.341303 
405.500000	16.508409 
406.000000	16.691696 
406.500000	16.898075 
407.000000	17.159393 
407.500000	17.403553 
408.000000	17.592901 
408.500000	17.710143 
409.000000	17.805257 
409.500000	17.922651 
410.000000	18.123280 
410.500000	18.374507 
411.000000	18.653545 
411.500000	18.837803 
412.000000	18.952553 
412.500000	19.036878 
413.000000	19.174037 
413.500000	19.330378 
414.000000	19.439810 
414.500000	19.479227 
415.000000	19.531007 
415.500000	19.693053 
416.000000	19.886522 
416.500000	20.051469 
417.000000	20.151401 
417.500000	20.224962 
418.000000	20.286977 
418.500000	20.336083 
419.000000	20.401545 
419.500000	20.504583 
420.000000	20.631999 
420.500000	20.752757 
421.000000	20.915401 
421.500000	21.069939 
422.000000	21.085022 
422.500000	20.955810 
423.000000	20.851454 
423.500000	20.897090 
424.000000	21.031113 
424.500000	21.111553 
425.000000	21.079803 
425.500000	21.036462 
426.000000	21.057757 
426.500000	21.126083 
427.000000	21.118037 
427.500000	21.062431 
428.000000	21.005848 
428.500000	21.026371 
429.000000	21.010598 
429.500000	20.969719 
430.000000	20.966303 
430.500000	20.982371 
431.000000	20.988765 
431.500000	20.902272 
432.000000	20.847515 
432.500000	20.802272 
433.000000	20.861068 
433.500000	20.873287 
434.000000	20.839151 
434.500000	20.724121 
435.000000	20.668636 
435.500000	20.696098 
436.000000	20.732901 
436.500000	20.605022 
437.000000	20.369431 
437.500000	20.166772 
438.000000	20.122734 
438.500000	20.098098 
439.000000	20.046553 
439.500000	19.917280 
440.000000	19.793325 
440.500000	19.663553 
441.000000	19.575742 
441.500000	19.439931 
442.000000	19.242318 
442.500000	19.004780 
443.000000	18.818810 
443.500000	18.697772 
444.000000	18.594977 
444.500000	18.535257 
445.000000	18.439696 
445.500000	18.290348 
446.000000	18.020545 
446.500000	17.831507 
447.000000	17.762962 
447.500000	17.800022 
448.000000	17.698734 
448.500000	17.456613 
449.000000	17.218727 
449.500000	17.055484 
450.000000	16.947977 
450.500000	16.811250 
451.000000	16.637977 
451.500000	16.429083 
452.000000	16.228363 
452.500000	16.050583 
453.000000	15.904022 
453.500000	15.754931 
454.000000	15.612227 
454.500000	15.497606 
455.000000	15.356931 
455.500000	15.204765 
456.000000	15.049659 
456.500000	14.884280 
457.000000	14.690015 
457.500000	14.528219 
458.000000	14.390757 
458.500000	14.250121 
459.000000	14.083681 
459.500000	13.930765 
460.000000	13.818712 
460.500000	13.728613 
461.000000	13.604606 
461.500000	13.389772 
462.000000	13.136189 
462.500000	12.960416 
463.000000	12.924371 
463.500000	12.918863 
464.000000	12.814750 
464.500000	12.631575 
465.000000	12.454803 
465.500000	12.271833 
466.000000	12.057590 
466.500000	11.849886 
467.000000	11.717719 
467.500000	11.699909 
468.000000	11.666742 
468.500000	11.578757 
469.000000	11.342030 
469.500000	11.146113 
470.000000	11.010916 
470.500000	11.007280 
471.000000	10.952621 
471.500000	10.908492 
472.000000	10.826696 
472.500000	10.754568 
473.000000	10.608409 
473.500000	10.452750 
474.000000	10.324325 
474.500000	10.232075 
475.000000	10.124424 
475.500000	10.007537 
476.000000	9.900878  
476.500000	9.791628  
477.000000	9.644250  
477.500000	9.531159  
478.000000	9.490060  
478.500000	9.490659  
479.000000	9.428583  
479.500000	9.316378  
480.000000	9.191015  
480.500000	9.096537  
481.000000	9.015272  
481.500000	8.949015  
482.000000	8.886757  
482.500000	8.796553  
483.000000	8.708439  
483.500000	8.611174  
484.000000	8.534022  
484.500000	8.462515  
485.000000	8.399522  
485.500000	8.355833  
486.000000	8.359196  
486.500000	8.389803  
487.000000	8.389272  
487.500000	8.325189  
488.000000	8.224893  
488.500000	8.147295  
489.000000	8.147439  
489.500000	8.213356  
490.000000	8.280242  
490.500000	8.276719  
491.000000	8.209060  
491.500000	8.136318  
492.000000	8.034106  
492.500000	7.928333  
493.000000	7.788833  
493.500000	7.685090  
494.000000	7.574113  
494.500000	7.500250  
495.000000	7.412651  
495.500000	7.317401  
496.000000	7.188499  
496.500000	7.045303  
497.000000	6.898166  
497.500000	6.761287  
498.000000	6.652318  
498.500000	6.546310  
499.000000	6.412287  
499.500000	6.262810  
500.000000	6.141325  
500.500000	6.067833  
501.000000	5.992696  
501.500000	5.919015  
502.000000	5.862166  
502.500000	5.815287  
503.000000	5.739545  
503.500000	5.654954  
504.000000	5.596106  
504.500000	5.535386  
505.000000	5.437840  
505.500000	5.358068  
506.000000	5.362401  
506.500000	5.396901  
507.000000	5.372393  
507.500000	5.285189  
508.000000	5.197954  
508.500000	5.136484  
509.000000	5.087333  
509.500000	5.035128  
510.000000	4.998219  
510.500000	4.954174  
511.000000	4.935000  
511.500000	4.903825  
512.000000	4.852636  
512.500000	4.755022  
513.000000	4.691750  
513.500000	4.659409  
514.000000	4.653977  
514.500000	4.609946  
515.000000	4.545181  
515.500000	4.482257  
516.000000	4.425772  
516.500000	4.387015  
517.000000	4.360613  
517.500000	4.338939  
518.000000	4.303537  
518.500000	4.283765  
519.000000	4.252045  
519.500000	4.217037  
520.000000	4.196931  
520.500000	4.183477  
521.000000	4.155060  
521.500000	4.086159  
522.000000	4.015833  
522.500000	3.957181  
523.000000	3.937265  
523.500000	3.912113  
524.000000	3.878553  
524.500000	3.810356  
525.000000	3.775083  
525.500000	3.762151  
526.000000	3.746212  
526.500000	3.697810  
527.000000	3.674886  
527.500000	3.657606  
528.000000	3.637833  
528.500000	3.606204  
529.000000	3.593295  
529.500000	3.549840  
530.000000	3.498166  
530.500000	3.456522  
531.000000	3.460439  
531.500000	3.453613  
532.000000	3.443037  
532.500000	3.433931  
533.000000	3.433757  
533.500000	3.400537  
534.000000	3.343863  
534.500000	3.299909  
535.000000	3.295022  
535.500000	3.283825  
536.000000	3.229848  
536.500000	3.144863  
537.000000	3.116545  
537.500000	3.130371  
538.000000	3.140121  
538.500000	3.089462  
539.000000	3.037984  
539.500000	3.024583  
540.000000	3.049863  
540.500000	3.062121  
541.000000	3.052045  
541.500000	3.021613  
542.000000	2.982674  
542.500000	2.960386  
543.000000	2.961469  
543.500000	2.965250  
544.000000	2.938318  
544.500000	2.902204  
545.000000	2.859136  
545.500000	2.829295  
546.000000	2.789113  
546.500000	2.765128  
547.000000	2.746227  
547.500000	2.738757  
548.000000	2.723598  
548.500000	2.698106  
549.000000	2.681265  
549.500000	2.671545  
550.000000	2.677621  
550.500000	2.674939  
551.000000	2.679803  
551.500000	2.666333  
552.000000	2.638833  
552.500000	2.598666  
553.000000	2.583234  
553.500000	2.583530  
554.000000	2.592643  
554.500000	2.606386  
555.000000	2.610068  
555.500000	2.585598  
556.000000	2.540219  
556.500000	2.506818  
557.000000	2.494992  
557.500000	2.486696  
558.000000	2.463068  
558.500000	2.428295  
559.000000	2.402636  
559.500000	2.384030  
560.000000	2.368522  
560.500000	2.347515  
561.000000	2.347416  
561.500000	2.336962  
562.000000	2.308666  
562.500000	2.269984  
563.000000	2.270348  
563.500000	2.274848  
564.000000	2.261575  
564.500000	2.226136  
565.000000	2.222439  
565.500000	2.230636  
566.000000	2.235909  
566.500000	2.225500  
567.000000	2.214984  
567.500000	2.183439  
568.000000	2.137446  
568.500000	2.105325  
569.000000	2.100151  
569.500000	2.102166  
570.000000	2.088886  
570.500000	2.071712  
571.000000	2.059515  
571.500000	2.045916  
572.000000	2.002340  
572.500000	1.962818  
573.000000	1.941590  
573.500000	1.950068  
574.000000	1.944863  
574.500000	1.945621  
575.000000	1.944969  
575.500000	1.940681  
576.000000	1.899492  
576.500000	1.867628  
577.000000	1.871757  
577.500000	1.885962  
578.000000	1.874068  
578.500000	1.829575  
579.000000	1.794886  
579.500000	1.786462  
580.000000	1.800772  
580.500000	1.808719  
581.000000	1.807075  
581.500000	1.796204  
582.000000	1.795030  
582.500000	1.781727  
583.000000	1.754393  
583.500000	1.714227  
584.000000	1.684000  
584.500000	1.679659  
585.000000	1.691795  
585.500000	1.697234  
586.000000	1.679863  
586.500000	1.675795  
587.000000	1.673257  
587.500000	1.674401  
588.000000	1.652280  
588.500000	1.647272  
589.000000	1.634090  
589.500000	1.609409  
590.000000	1.575742  
590.500000	1.564863  
591.000000	1.573393  
591.500000	1.571772  
592.000000	1.560651  
592.500000	1.533128  
593.000000	1.511651  
593.500000	1.481522  
594.000000	1.457530  
594.500000	1.441492  
595.000000	1.460696  
595.500000	1.494340  
596.000000	1.509015  
596.500000	1.478946  
597.000000	1.426750  
597.500000	1.388469  
598.000000	1.387946  
598.500000	1.399492  
599.000000	1.416015  
599.500000	1.449060  
600.000000	1.515000  

