PE FL                   SPECTRUM    ASCII       PEDS        1.60        
  -1
01#236.SP
02/03/21
23:54:50.00
02/03/21
23:57:12.00


520.000000
1









LS55
280.00
5.00
5.00
SCAN
1
20
100
100
0
100
0
1
0
1
7
ON
520 280 
1 0 0
#HDR
-1
-1
#GR
NM

0.00002384185791015625
0.0
300.000000
0.500000
441
8
54.383060
1.016000
#DATA
300.000000	1.016000  
300.500000	1.654750  
301.000000	2.394477  
301.500000	3.306681  
302.000000	4.422325  
302.500000	5.786386  
303.000000	7.510992  
303.500000	9.695393  
304.000000	12.279871 
304.500000	15.005818 
305.000000	17.739719 
305.500000	20.502007 
306.000000	23.446590 
306.500000	26.516772 
307.000000	29.598007 
307.500000	32.580878 
308.000000	35.410515 
308.500000	37.982098 
309.000000	40.287106 
309.500000	42.376643 
310.000000	44.312007 
310.500000	46.021651 
311.000000	47.397000 
311.500000	48.524515 
312.000000	49.437287 
312.500000	50.201712 
313.000000	50.753719 
313.500000	51.173128 
314.000000	51.408454 
314.500000	51.593954 
315.000000	51.693727 
315.500000	51.709734 
316.000000	51.636280 
316.500000	51.586189 
317.000000	51.565583 
317.500000	51.471583 
318.000000	51.245765 
318.500000	50.992696 
319.000000	50.789818 
319.500000	50.528666 
320.000000	50.151166 
320.500000	49.698159 
321.000000	49.235159 
321.500000	48.716045 
322.000000	48.229696 
322.500000	47.823825 
323.000000	47.543636 
323.500000	47.111659 
324.000000	46.486280 
324.500000	45.856772 
325.000000	45.365106 
325.500000	44.947606 
326.000000	44.522348 
326.500000	44.118484 
327.000000	43.641840 
327.500000	43.021871 
328.000000	42.374424 
328.500000	42.037348 
329.000000	41.887901 
329.500000	41.698568 
330.000000	41.205681 
330.500000	40.563787 
331.000000	39.883371 
331.500000	39.367015 
332.000000	38.921340 
332.500000	38.559000 
333.000000	38.177083 
333.500000	37.867295 
334.000000	37.651189 
334.500000	37.541696 
335.000000	37.450007 
335.500000	37.356196 
336.000000	37.270916 
336.500000	37.240530 
337.000000	37.262287 
337.500000	37.388340 
338.000000	37.671181 
338.500000	38.105606 
339.000000	38.645492 
339.500000	39.120196 
340.000000	39.500492 
340.500000	39.763303 
341.000000	40.059537 
341.500000	40.393984 
342.000000	40.807090 
342.500000	41.158484 
343.000000	41.437530 
343.500000	41.634174 
344.000000	41.750787 
344.500000	41.822621 
345.000000	41.799969 
345.500000	41.667303 
346.000000	41.504340 
346.500000	41.460053 
347.000000	41.492401 
347.500000	41.379575 
348.000000	41.045295 
348.500000	40.624310 
349.000000	40.428106 
349.500000	40.353348 
350.000000	40.395712 
350.500000	40.474916 
351.000000	40.695143 
351.500000	40.900772 
352.000000	41.101901 
352.500000	41.179250 
353.000000	41.344310 
353.500000	41.819409 
354.000000	42.674068 
354.500000	43.516613 
355.000000	44.104848 
355.500000	44.735666 
356.000000	45.494522 
356.500000	46.386083 
357.000000	47.129000 
357.500000	47.921462 
358.000000	48.730515 
358.500000	49.687477 
359.000000	50.516007 
359.500000	51.294803 
360.000000	51.792371 
360.500000	52.257416 
361.000000	52.604030 
361.500000	52.931818 
362.000000	53.191704 
362.500000	53.554015 
363.000000	53.874484 
363.500000	54.193484 
364.000000	54.383060 
364.500000	54.350765 
365.000000	54.055515 
365.500000	53.611045 
366.000000	53.320886 
366.500000	53.163992 
367.000000	52.926446 
367.500000	52.430628 
368.000000	51.844333 
368.500000	51.519977 
369.000000	51.417325 
369.500000	51.343643 
370.000000	51.087219 
370.500000	50.814863 
371.000000	50.517704 
371.500000	50.383765 
372.000000	50.309249 
372.500000	50.256719 
373.000000	50.117500 
373.500000	49.976159 
374.000000	49.968863 
374.500000	50.050106 
375.000000	50.276750 
375.500000	50.520181 
376.000000	50.656439 
376.500000	50.677621 
377.000000	50.684628 
377.500000	50.729977 
378.000000	50.820363 
378.500000	50.992818 
379.000000	51.127416 
379.500000	51.141893 
380.000000	50.980234 
380.500000	50.821992 
381.000000	50.678590 
381.500000	50.483000 
382.000000	50.245924 
382.500000	50.044954 
383.000000	49.845780 
383.500000	49.630439 
384.000000	49.320840 
384.500000	48.801378 
385.000000	48.091674 
385.500000	47.362386 
386.000000	46.795757 
386.500000	46.285484 
387.000000	45.768590 
387.500000	45.188946 
388.000000	44.672954 
388.500000	44.127583 
389.000000	43.588098 
389.500000	43.095386 
390.000000	42.590931 
390.500000	41.983704 
391.000000	41.304780 
391.500000	40.694734 
392.000000	40.122893 
392.500000	39.608727 
393.000000	39.084075 
393.500000	38.630704 
394.000000	38.133712 
394.500000	37.619750 
395.000000	37.125916 
395.500000	36.731431 
396.000000	36.421181 
396.500000	36.095560 
397.000000	35.696878 
397.500000	35.200780 
398.000000	34.753227 
398.500000	34.371871 
399.000000	34.069757 
399.500000	33.802136 
400.000000	33.581613 
400.500000	33.322166 
401.000000	32.900393 
401.500000	32.429189 
402.000000	32.129318 
402.500000	32.043772 
403.000000	31.894166 
403.500000	31.519204 
404.000000	31.088189 
404.500000	30.706583 
405.000000	30.341037 
405.500000	29.918340 
406.000000	29.558371 
406.500000	29.285484 
407.000000	29.064477 
407.500000	28.775022 
408.000000	28.397045 
408.500000	27.965515 
409.000000	27.559969 
409.500000	27.195606 
410.000000	26.911121 
410.500000	26.704757 
411.000000	26.562386 
411.500000	26.358840 
412.000000	26.050977 
412.500000	25.703196 
413.000000	25.250257 
413.500000	24.715628 
414.000000	24.072484 
414.500000	23.637901 
415.000000	23.421204 
415.500000	23.385909 
416.000000	23.183492 
416.500000	22.851772 
417.000000	22.454424 
417.500000	22.118507 
418.000000	21.712431 
418.500000	21.277878 
419.000000	20.964742 
419.500000	20.830333 
420.000000	20.672227 
420.500000	20.397015 
421.000000	20.048000 
421.500000	19.775075 
422.000000	19.585356 
422.500000	19.423666 
423.000000	19.209651 
423.500000	18.923068 
424.000000	18.599636 
424.500000	18.303469 
425.000000	18.085795 
425.500000	17.900303 
426.000000	17.661227 
426.500000	17.443613 
427.000000	17.286348 
427.500000	17.203924 
428.000000	17.056386 
428.500000	16.842916 
429.000000	16.537098 
429.500000	16.201757 
430.000000	15.841515 
430.500000	15.568106 
431.000000	15.388325 
431.500000	15.249303 
432.000000	15.079007 
432.500000	14.919992 
433.000000	14.736931 
433.500000	14.574348 
434.000000	14.405795 
434.500000	14.301575 
435.000000	14.146962 
435.500000	13.966333 
436.000000	13.686325 
436.500000	13.417287 
437.000000	13.173840 
437.500000	13.053522 
438.000000	12.980666 
438.500000	12.822946 
439.000000	12.533325 
439.500000	12.184810 
440.000000	11.922606 
440.500000	11.733325 
441.000000	11.597462 
441.500000	11.447984 
442.000000	11.313712 
442.500000	11.155196 
443.000000	10.994643 
443.500000	10.792750 
444.000000	10.600984 
444.500000	10.417590 
445.000000	10.271310 
445.500000	10.090462 
446.000000	9.949007  
446.500000	9.850810  
447.000000	9.750704  
447.500000	9.570484  
448.000000	9.364295  
448.500000	9.210310  
449.000000	9.078863  
449.500000	8.959575  
450.000000	8.826969  
450.500000	8.697643  
451.000000	8.552113  
451.500000	8.406924  
452.000000	8.316999  
452.500000	8.219886  
453.000000	8.083393  
453.500000	7.919704  
454.000000	7.827939  
454.500000	7.730083  
455.000000	7.587643  
455.500000	7.371575  
456.000000	7.197522  
456.500000	7.110037  
457.000000	7.041840  
457.500000	6.957318  
458.000000	6.882378  
458.500000	6.818962  
459.000000	6.716734  
459.500000	6.588454  
460.000000	6.485174  
460.500000	6.399356  
461.000000	6.332840  
461.500000	6.225416  
462.000000	6.127598  
462.500000	5.988878  
463.000000	5.906878  
463.500000	5.837189  
464.000000	5.812916  
464.500000	5.750333  
465.000000	5.697946  
465.500000	5.629780  
466.000000	5.548507  
466.500000	5.439681  
467.000000	5.333840  
467.500000	5.237939  
468.000000	5.128106  
468.500000	5.040454  
469.000000	4.993962  
469.500000	4.985522  
470.000000	4.946242  
470.500000	4.885136  
471.000000	4.833098  
471.500000	4.787689  
472.000000	4.710416  
472.500000	4.609303  
473.000000	4.521568  
473.500000	4.476159  
474.000000	4.434242  
474.500000	4.384575  
475.000000	4.340431  
475.500000	4.294621  
476.000000	4.218962  
476.500000	4.141409  
477.000000	4.113878  
477.500000	4.146007  
478.000000	4.153939  
478.500000	4.095772  
479.000000	3.992954  
479.500000	3.913871  
480.000000	3.864454  
480.500000	3.843810  
481.000000	3.819704  
481.500000	3.772439  
482.000000	3.713628  
482.500000	3.665871  
483.000000	3.673787  
483.500000	3.695856  
484.000000	3.705212  
484.500000	3.678030  
485.000000	3.678553  
485.500000	3.661727  
486.000000	3.608446  
486.500000	3.500386  
487.000000	3.434795  
487.500000	3.406143  
488.000000	3.394303  
488.500000	3.345174  
489.000000	3.300007  
489.500000	3.260931  
490.000000	3.236643  
490.500000	3.196075  
491.000000	3.159090  
491.500000	3.103075  
492.000000	3.050121  
492.500000	2.980371  
493.000000	2.934621  
493.500000	2.893522  
494.000000	2.897553  
494.500000	2.900545  
495.000000	2.873553  
495.500000	2.797499  
496.000000	2.731257  
496.500000	2.701295  
497.000000	2.698795  
497.500000	2.683128  
498.000000	2.687992  
498.500000	2.692901  
499.000000	2.667659  
499.500000	2.599393  
500.000000	2.565606  
500.500000	2.556719  
501.000000	2.548386  
501.500000	2.499181  
502.000000	2.461560  
502.500000	2.440659  
503.000000	2.427166  
503.500000	2.393462  
504.000000	2.368469  
504.500000	2.327462  
505.000000	2.281007  
505.500000	2.234765  
506.000000	2.218121  
506.500000	2.208068  
507.000000	2.206977  
507.500000	2.187696  
508.000000	2.173954  
508.500000	2.156424  
509.000000	2.157500  
509.500000	2.150287  
510.000000	2.122174  
510.500000	2.087462  
511.000000	2.064325  
511.500000	2.049257  
512.000000	2.023863  
512.500000	2.006257  
513.000000	1.986204  
513.500000	1.971431  
514.000000	1.956522  
514.500000	1.946166  
515.000000	1.919416  
515.500000	1.873287  
516.000000	1.818356  
516.500000	1.791318  
517.000000	1.809757  
517.500000	1.851522  
518.000000	1.851924  
518.500000	1.797659  
519.000000	1.743106  
519.500000	1.740386  
520.000000	1.786000  

