PE FL                   SPECTRUM    ASCII       PEDS        1.60        
  -1
01#231.SP
02/03/21
23:38:35.00
02/03/21
23:40:13.00


400.000000
1









LS55
420.00
5.00
5.00
SCAN
1
20
100
100
0
100
0
0
0
1
7
ON
420 400 
1 0 0
#HDR
-1
-1
#GR
NM

0.00002384185791015625
0.0
250.000000
0.500000
301
8
37.029159
10.557401
#DATA
250.000000	12.398000 
250.500000	12.120227 
251.000000	11.982939 
251.500000	12.035803 
252.000000	12.229462 
252.500000	12.383901 
253.000000	12.452856 
253.500000	12.542356 
254.000000	12.701257 
254.500000	12.906121 
255.000000	13.059840 
255.500000	13.209818 
256.000000	13.350287 
256.500000	13.568007 
257.000000	13.810840 
257.500000	14.082515 
258.000000	14.353825 
258.500000	14.654537 
259.000000	15.012287 
259.500000	15.369727 
260.000000	15.702151 
260.500000	16.005810 
261.000000	16.408734 
261.500000	16.908621 
262.000000	17.414189 
262.500000	17.814969 
263.000000	18.145280 
263.500000	18.412045 
264.000000	18.626484 
264.500000	18.830356 
265.000000	19.120257 
265.500000	19.494303 
266.000000	19.896378 
266.500000	20.285053 
267.000000	20.689795 
267.500000	21.022015 
268.000000	21.288515 
268.500000	21.539234 
269.000000	21.857689 
269.500000	22.174901 
270.000000	22.399121 
270.500000	22.588780 
271.000000	22.834939 
271.500000	23.140416 
272.000000	23.388924 
272.500000	23.498651 
273.000000	23.548075 
273.500000	23.607151 
274.000000	23.687583 
274.500000	23.666515 
275.000000	23.677204 
275.500000	23.773257 
276.000000	23.916712 
276.500000	23.892030 
277.000000	23.753363 
277.500000	23.672462 
278.000000	23.667446 
278.500000	23.594121 
279.000000	23.399386 
279.500000	23.199590 
280.000000	23.063696 
280.500000	22.944318 
281.000000	22.783780 
281.500000	22.559856 
282.000000	22.376181 
282.500000	22.287090 
283.000000	22.278636 
283.500000	22.182007 
284.000000	22.020515 
284.500000	21.769454 
285.000000	21.613734 
285.500000	21.488553 
286.000000	21.359742 
286.500000	21.009159 
287.000000	20.475734 
287.500000	19.834969 
288.000000	19.198886 
288.500000	18.527924 
289.000000	17.844340 
289.500000	17.192583 
290.000000	16.507030 
290.500000	15.738181 
291.000000	14.936181 
291.500000	14.206113 
292.000000	13.549484 
292.500000	12.918037 
293.000000	12.298348 
293.500000	11.815825 
294.000000	11.452757 
294.500000	11.163840 
295.000000	10.840954 
295.500000	10.619553 
296.000000	10.557401 
296.500000	10.689560 
297.000000	10.852136 
297.500000	11.106037 
298.000000	11.507696 
298.500000	12.103424 
299.000000	12.890356 
299.500000	13.925037 
300.000000	15.191931 
300.500000	16.628969 
301.000000	18.098704 
301.500000	19.606606 
302.000000	21.330659 
302.500000	23.348727 
303.000000	25.386772 
303.500000	27.193128 
304.000000	28.769886 
304.500000	30.332984 
305.000000	31.846037 
305.500000	33.141030 
306.000000	34.249015 
306.500000	35.178371 
307.000000	35.936462 
307.500000	36.408954 
308.000000	36.688522 
308.500000	36.809037 
309.000000	36.972310 
309.500000	37.029159 
310.000000	36.917810 
310.500000	36.568787 
311.000000	36.155492 
311.500000	35.701439 
312.000000	35.131772 
312.500000	34.413022 
313.000000	33.681643 
313.500000	33.013871 
314.000000	32.374719 
314.500000	31.668424 
315.000000	30.841553 
315.500000	30.050022 
316.000000	29.403333 
316.500000	28.854181 
317.000000	28.223090 
317.500000	27.558265 
318.000000	26.944704 
318.500000	26.418499 
319.000000	25.808909 
319.500000	25.168106 
320.000000	24.569954 
320.500000	24.152537 
321.000000	23.799863 
321.500000	23.400060 
322.000000	22.931075 
322.500000	22.507060 
323.000000	22.174431 
323.500000	21.856128 
324.000000	21.490507 
324.500000	21.142128 
325.000000	20.876295 
325.500000	20.622469 
326.000000	20.298045 
326.500000	20.010659 
327.000000	19.823696 
327.500000	19.714083 
328.000000	19.523939 
328.500000	19.289901 
329.000000	19.116166 
329.500000	19.033787 
330.000000	18.950560 
330.500000	18.827795 
331.000000	18.691378 
331.500000	18.583454 
332.000000	18.525477 
332.500000	18.516757 
333.000000	18.481378 
333.500000	18.455810 
334.000000	18.452568 
334.500000	18.546984 
335.000000	18.649325 
335.500000	18.680939 
336.000000	18.579257 
336.500000	18.476833 
337.000000	18.394977 
337.500000	18.372401 
338.000000	18.365280 
338.500000	18.366871 
339.000000	18.323424 
339.500000	18.268446 
340.000000	18.195083 
340.500000	18.154871 
341.000000	18.089075 
341.500000	18.008818 
342.000000	17.936742 
342.500000	17.937893 
343.000000	17.961909 
343.500000	17.964409 
344.000000	17.897098 
344.500000	17.784045 
345.000000	17.691954 
345.500000	17.674424 
346.000000	17.674924 
346.500000	17.642780 
347.000000	17.596878 
347.500000	17.650750 
348.000000	17.783015 
348.500000	17.885530 
349.000000	17.925454 
349.500000	17.957901 
350.000000	17.997712 
350.500000	17.995659 
351.000000	17.928515 
351.500000	17.880984 
352.000000	17.859113 
352.500000	17.862181 
353.000000	17.923431 
353.500000	18.055734 
354.000000	18.133871 
354.500000	18.115068 
355.000000	18.055272 
355.500000	18.093560 
356.000000	18.209901 
356.500000	18.340590 
357.000000	18.454075 
357.500000	18.552810 
358.000000	18.591280 
358.500000	18.606166 
359.000000	18.638840 
359.500000	18.727022 
360.000000	18.795916 
360.500000	18.812242 
361.000000	18.786621 
361.500000	18.805818 
362.000000	18.838833 
362.500000	18.904590 
363.000000	18.949356 
363.500000	19.056916 
364.000000	19.119106 
364.500000	19.176371 
365.000000	19.194227 
365.500000	19.280007 
366.000000	19.320295 
366.500000	19.374257 
367.000000	19.380037 
367.500000	19.411560 
368.000000	19.413689 
368.500000	19.442000 
369.000000	19.462818 
369.500000	19.482007 
370.000000	19.494484 
370.500000	19.533393 
371.000000	19.527212 
371.500000	19.453189 
372.000000	19.383484 
372.500000	19.411484 
373.000000	19.430492 
373.500000	19.390030 
374.000000	19.263545 
374.500000	19.172257 
375.000000	19.084583 
375.500000	19.008848 
376.000000	18.952250 
376.500000	18.898522 
377.000000	18.817166 
377.500000	18.657825 
378.000000	18.474060 
378.500000	18.270416 
379.000000	18.136318 
379.500000	17.980742 
380.000000	17.836295 
380.500000	17.726484 
381.000000	17.671515 
381.500000	17.597734 
382.000000	17.458037 
382.500000	17.321795 
383.000000	17.191530 
383.500000	17.086454 
384.000000	16.952803 
384.500000	16.899704 
385.000000	16.866992 
385.500000	16.852583 
386.000000	16.771757 
386.500000	16.708613 
387.000000	16.629030 
387.500000	16.601272 
388.000000	16.574560 
388.500000	16.602371 
389.000000	16.596681 
389.500000	16.566613 
390.000000	16.525999 
390.500000	16.554378 
391.000000	16.574621 
391.500000	16.514901 
392.000000	16.382886 
392.500000	16.270954 
393.000000	16.209295 
393.500000	16.149946 
394.000000	16.072537 
394.500000	15.973060 
395.000000	15.872878 
395.500000	15.744484 
396.000000	15.602196 
396.500000	15.427643 
397.000000	15.269295 
397.500000	15.123363 
398.000000	14.997507 
398.500000	14.899628 
399.000000	14.819840 
399.500000	14.681810 
400.000000	14.473000 

