PE FL                   SPECTRUM    ASCII       PEDS        1.60        
  -1
01#232.SP
02/03/21
23:41:42.00
02/03/21
23:43:20.00


400.000000
1









LS55
450.00
5.00
5.00
SCAN
1
20
100
100
0
100
0
0
0
1
7
ON
420 400 
1 0 0
#HDR
-1
-1
#GR
NM

0.00002384185791015625
0.0
250.000000
0.500000
301
8
22.058772
5.709189
#DATA
250.000000	6.579000  
250.500000	6.198454  
251.000000	6.088106  
251.500000	6.254439  
252.000000	6.434643  
252.500000	6.518613  
253.000000	6.527787  
253.500000	6.571636  
254.000000	6.590083  
254.500000	6.559386  
255.000000	6.558969  
255.500000	6.663037  
256.000000	6.843015  
256.500000	6.906787  
257.000000	6.881250  
257.500000	6.854818  
258.000000	6.940992  
258.500000	7.110924  
259.000000	7.354628  
259.500000	7.565871  
260.000000	7.712143  
260.500000	7.804462  
261.000000	7.943848  
261.500000	8.165053  
262.000000	8.417386  
262.500000	8.613643  
263.000000	8.779015  
263.500000	8.969174  
264.000000	9.145977  
264.500000	9.247121  
265.000000	9.306416  
265.500000	9.396287  
266.000000	9.502393  
266.500000	9.544909  
267.000000	9.631234  
267.500000	9.803772  
268.000000	10.029568 
268.500000	10.097742 
269.000000	10.148333 
269.500000	10.265606 
270.000000	10.491666 
270.500000	10.605568 
271.000000	10.590477 
271.500000	10.580818 
272.000000	10.690886 
272.500000	10.780825 
273.000000	10.748310 
273.500000	10.707818 
274.000000	10.722143 
274.500000	10.813553 
275.000000	10.862848 
275.500000	10.950833 
276.000000	10.994166 
276.500000	11.034257 
277.000000	10.975371 
277.500000	10.923121 
278.000000	10.778303 
278.500000	10.633000 
279.000000	10.482310 
279.500000	10.396310 
280.000000	10.328946 
280.500000	10.293787 
281.000000	10.293469 
281.500000	10.292060 
282.000000	10.286734 
282.500000	10.241454 
283.000000	10.191242 
283.500000	10.105363 
284.000000	10.028196 
284.500000	9.920113  
285.000000	9.826492  
285.500000	9.676772  
286.000000	9.517257  
286.500000	9.322325  
287.000000	9.174833  
287.500000	9.028909  
288.000000	8.868234  
288.500000	8.603265  
289.000000	8.305348  
289.500000	7.998219  
290.000000	7.709462  
290.500000	7.402575  
291.000000	7.078272  
291.500000	6.782439  
292.000000	6.508257  
292.500000	6.276098  
293.000000	6.063916  
293.500000	5.942583  
294.000000	5.856090  
294.500000	5.792545  
295.000000	5.715325  
295.500000	5.709189  
296.000000	5.734242  
296.500000	5.751075  
297.000000	5.768401  
297.500000	5.927856  
298.000000	6.254196  
298.500000	6.687659  
299.000000	7.195318  
299.500000	7.802659  
300.000000	8.562969  
300.500000	9.449265  
301.000000	10.460659 
301.500000	11.488871 
302.000000	12.534909 
302.500000	13.579075 
303.000000	14.648416 
303.500000	15.707954 
304.000000	16.740628 
304.500000	17.761386 
305.000000	18.705257 
305.500000	19.507515 
306.000000	20.119840 
306.500000	20.609151 
307.000000	21.061128 
307.500000	21.514916 
308.000000	21.875946 
308.500000	22.008590 
309.000000	21.985386 
309.500000	21.994356 
310.000000	22.057348 
310.500000	22.058772 
311.000000	21.897901 
311.500000	21.650628 
312.000000	21.355833 
312.500000	21.044787 
313.000000	20.663962 
313.500000	20.268818 
314.000000	19.888477 
314.500000	19.578568 
315.000000	19.287909 
315.500000	18.935924 
316.000000	18.479946 
316.500000	18.056636 
317.000000	17.718825 
317.500000	17.457037 
318.000000	17.189787 
318.500000	16.900636 
319.000000	16.557333 
319.500000	16.217977 
320.000000	15.883068 
320.500000	15.603212 
321.000000	15.307583 
321.500000	15.044007 
322.000000	14.816371 
322.500000	14.647045 
323.000000	14.415818 
323.500000	14.120598 
324.000000	13.797280 
324.500000	13.577378 
325.000000	13.449712 
325.500000	13.340242 
326.000000	13.173348 
326.500000	12.966060 
327.000000	12.775446 
327.500000	12.624734 
328.000000	12.513643 
328.500000	12.448386 
329.000000	12.399977 
329.500000	12.353553 
330.000000	12.320568 
330.500000	12.260166 
331.000000	12.138500 
331.500000	12.057909 
332.000000	12.083742 
332.500000	12.183606 
333.000000	12.221484 
333.500000	12.172545 
334.000000	12.110098 
334.500000	12.085598 
335.000000	12.075015 
335.500000	12.103310 
336.000000	12.164810 
336.500000	12.232325 
337.000000	12.267045 
337.500000	12.277477 
338.000000	12.279310 
338.500000	12.340454 
339.000000	12.423303 
339.500000	12.487431 
340.000000	12.467340 
340.500000	12.409628 
341.000000	12.412272 
341.500000	12.492659 
342.000000	12.574015 
342.500000	12.565318 
343.000000	12.499992 
343.500000	12.440916 
344.000000	12.454371 
344.500000	12.515886 
345.000000	12.560765 
345.500000	12.599090 
346.000000	12.638431 
346.500000	12.714098 
347.000000	12.805545 
347.500000	12.898924 
348.000000	12.976696 
348.500000	13.046333 
349.000000	13.117287 
349.500000	13.203765 
350.000000	13.265856 
350.500000	13.327212 
351.000000	13.428696 
351.500000	13.584333 
352.000000	13.691522 
352.500000	13.757742 
353.000000	13.838946 
353.500000	13.991719 
354.000000	14.162393 
354.500000	14.255939 
355.000000	14.309719 
355.500000	14.376446 
356.000000	14.498742 
356.500000	14.638060 
357.000000	14.770030 
357.500000	14.912515 
358.000000	15.040196 
358.500000	15.148590 
359.000000	15.253037 
359.500000	15.418636 
360.000000	15.609924 
360.500000	15.757863 
361.000000	15.837712 
361.500000	15.870318 
362.000000	15.898560 
362.500000	15.972212 
363.000000	16.123356 
363.500000	16.254787 
364.000000	16.341007 
364.500000	16.425636 
365.000000	16.609121 
365.500000	16.789287 
366.000000	16.906151 
366.500000	16.960803 
367.000000	17.086469 
367.500000	17.189151 
368.000000	17.260030 
368.500000	17.258848 
369.000000	17.339825 
369.500000	17.478606 
370.000000	17.604166 
370.500000	17.605916 
371.000000	17.588848 
371.500000	17.660083 
372.000000	17.795810 
372.500000	17.880977 
373.000000	17.865356 
373.500000	17.885371 
374.000000	17.940325 
374.500000	17.985431 
375.000000	17.995090 
375.500000	18.007969 
376.000000	18.014189 
376.500000	17.997325 
377.000000	17.976871 
377.500000	17.907318 
378.000000	17.778477 
378.500000	17.610386 
379.000000	17.531924 
379.500000	17.530909 
380.000000	17.534492 
380.500000	17.455136 
381.000000	17.354439 
381.500000	17.271257 
382.000000	17.239651 
382.500000	17.217818 
383.000000	17.135318 
383.500000	16.990628 
384.000000	16.835136 
384.500000	16.730553 
385.000000	16.689159 
385.500000	16.683363 
386.000000	16.641462 
386.500000	16.543325 
387.000000	16.486030 
387.500000	16.471287 
388.000000	16.484189 
388.500000	16.468992 
389.000000	16.461000 
389.500000	16.431893 
390.000000	16.328083 
390.500000	16.196659 
391.000000	16.115939 
391.500000	16.103416 
392.000000	16.029818 
392.500000	15.914568 
393.000000	15.763696 
393.500000	15.700787 
394.000000	15.686613 
394.500000	15.687030 
395.000000	15.596893 
395.500000	15.470636 
396.000000	15.348143 
396.500000	15.236575 
397.000000	15.078901 
397.500000	14.857742 
398.000000	14.632568 
398.500000	14.372265 
399.000000	14.154484 
399.500000	14.081969 
400.000000	14.192000 

