PE FL                   SPECTRUM    ASCII       PEDS        1.60        
  -1
01#214.SP
02/03/21
05:05:38.00
02/03/21
05:08:04.00


460.000000
1









LS55
490.00
5.00
5.00
SCAN
1
20
100
100
0
100
0
0
0
1
7
ON
650 365 
1 0 0
#HDR
-1
-1
#GR
NM

0.00002384185791015625
0.0
240.000000
0.500000
441
8
179.493000
32.702696
#DATA
240.000000	69.803999  
240.500000	75.832825  
241.000000	82.089515  
241.500000	88.227734  
242.000000	93.399136  
242.500000	96.760568  
243.000000	97.845651  
243.500000	96.331469  
244.000000	92.279386  
244.500000	86.262757  
245.000000	79.198356  
245.500000	72.027068  
246.000000	65.402030  
246.500000	59.712689  
247.000000	55.010916  
247.500000	51.182613  
248.000000	48.207765  
248.500000	46.352840  
249.000000	45.709106  
249.500000	45.948090  
250.000000	46.638628  
250.500000	47.650295  
251.000000	48.875189  
251.500000	50.157030  
252.000000	51.191977  
252.500000	51.971363  
253.000000	52.566734  
253.500000	53.034499  
254.000000	53.247840  
254.500000	53.073530  
255.000000	52.434643  
255.500000	51.412280  
256.000000	50.231030  
256.500000	49.153515  
257.000000	48.227416  
257.500000	47.425303  
258.000000	46.661856  
258.500000	46.092871  
259.000000	45.839568  
259.500000	45.968204  
260.000000	46.426378  
260.500000	47.093287  
261.000000	47.824666  
261.500000	48.590022  
262.000000	49.514348  
262.500000	50.603136  
263.000000	51.589651  
263.500000	52.297484  
264.000000	52.594742  
264.500000	52.676863  
265.000000	52.601151  
265.500000	52.598666  
266.000000	52.611030  
266.500000	52.614560  
267.000000	52.503871  
267.500000	52.386734  
268.000000	52.233166  
268.500000	52.107409  
269.000000	52.107030  
269.500000	52.171416  
270.000000	52.144984  
270.500000	51.941825  
271.000000	51.798272  
271.500000	51.674121  
272.000000	51.486962  
272.500000	51.129265  
273.000000	51.010159  
273.500000	51.089939  
274.000000	51.258765  
274.500000	51.077053  
275.000000	50.720583  
275.500000	50.318272  
276.000000	50.160901  
276.500000	50.088848  
277.000000	49.925795  
277.500000	49.564356  
278.000000	49.236424  
278.500000	48.951409  
279.000000	48.624712  
279.500000	48.194295  
280.000000	47.772363  
280.500000	47.395856  
281.000000	47.000075  
281.500000	46.529522  
282.000000	46.080537  
282.500000	45.637727  
283.000000	45.176787  
283.500000	44.690113  
284.000000	44.138272  
284.500000	43.682984  
285.000000	43.407545  
285.500000	43.292621  
286.000000	43.115393  
286.500000	42.849530  
287.000000	42.541295  
287.500000	42.311886  
288.000000	42.085810  
288.500000	41.904621  
289.000000	41.723484  
289.500000	41.432310  
290.000000	41.020371  
290.500000	40.585962  
291.000000	40.262477  
291.500000	39.948537  
292.000000	39.509719  
292.500000	38.918174  
293.000000	38.230613  
293.500000	37.434628  
294.000000	36.535181  
294.500000	35.662227  
295.000000	34.972522  
295.500000	34.416007  
296.000000	33.841378  
296.500000	33.304893  
297.000000	32.907795  
297.500000	32.730454  
298.000000	32.702696  
298.500000	32.815196  
299.000000	33.163446  
299.500000	33.845530  
300.000000	34.921901  
300.500000	36.310159  
301.000000	37.928090  
301.500000	39.691409  
302.000000	41.817500  
302.500000	44.411363  
303.000000	47.339878  
303.500000	50.414469  
304.000000	53.536469  
304.500000	56.907272  
305.000000	60.352356  
305.500000	63.551053  
306.000000	66.382590  
306.500000	69.232371  
307.000000	72.087439  
307.500000	74.702068  
308.000000	77.014484  
308.500000	79.152613  
309.000000	81.146681  
309.500000	82.671295  
310.000000	83.800780  
310.500000	84.790386  
311.000000	85.779249  
311.500000	86.793303  
312.000000	87.769060  
312.500000	88.582848  
313.000000	89.066310  
313.500000	89.257022  
314.000000	89.321659  
314.500000	89.457719  
315.000000	89.701189  
315.500000	89.948840  
316.000000	90.080727  
316.500000	90.065643  
317.000000	90.056181  
317.500000	89.923363  
318.000000	89.674787  
318.500000	89.543977  
319.000000	89.559477  
319.500000	89.557310  
320.000000	89.488590  
320.500000	89.440128  
321.000000	89.537234  
321.500000	89.634196  
322.000000	89.680257  
322.500000	89.603348  
323.000000	89.585500  
323.500000	89.772613  
324.000000	90.175393  
324.500000	90.469174  
325.000000	90.478492  
325.500000	90.521363  
326.000000	90.777689  
326.500000	91.232363  
327.000000	91.609007  
327.500000	91.889818  
328.000000	92.186727  
328.500000	92.627780  
329.000000	93.240159  
329.500000	93.783568  
330.000000	94.202537  
330.500000	94.443424  
331.000000	94.772378  
331.500000	95.235469  
332.000000	95.868250  
332.500000	96.478340  
333.000000	96.989757  
333.500000	97.414446  
334.000000	97.876901  
334.500000	98.376530  
335.000000	98.850492  
335.500000	99.173742  
336.000000	99.461083  
336.500000	99.787909  
337.000000	100.217075 
337.500000	100.510954 
338.000000	100.737318 
338.500000	100.913189 
339.000000	101.163280 
339.500000	101.408833 
340.000000	101.617825 
340.500000	101.811568 
341.000000	102.117166 
341.500000	102.532401 
342.000000	103.050196 
342.500000	103.593969 
343.000000	104.177583 
343.500000	104.699651 
344.000000	105.076219 
344.500000	105.186174 
345.000000	105.332643 
345.500000	105.592484 
346.000000	106.015106 
346.500000	106.430212 
347.000000	106.850189 
347.500000	107.176484 
348.000000	107.419651 
348.500000	107.619931 
349.000000	107.947439 
349.500000	108.392522 
350.000000	108.658522 
350.500000	108.693257 
351.000000	108.532401 
351.500000	108.429568 
352.000000	108.238659 
352.500000	108.030643 
353.000000	107.808984 
353.500000	107.944265 
354.000000	108.149454 
354.500000	108.403750 
355.000000	108.620750 
355.500000	109.296295 
356.000000	110.374969 
356.500000	111.702530 
357.000000	113.131818 
357.500000	114.888250 
358.000000	117.274083 
358.500000	120.240159 
359.000000	123.723371 
359.500000	127.371227 
360.000000	131.317060 
360.500000	135.282363 
361.000000	139.254090 
361.500000	142.799083 
362.000000	146.032530 
362.500000	148.995484 
363.000000	151.650318 
363.500000	153.533333 
364.000000	154.450909 
364.500000	154.494772 
365.000000	153.874219 
365.500000	152.475719 
366.000000	150.300310 
366.500000	147.567613 
367.000000	144.629068 
367.500000	141.641356 
368.000000	138.753045 
368.500000	136.080090 
369.000000	133.660174 
369.500000	131.484689 
370.000000	129.681431 
370.500000	128.570954 
371.000000	128.046310 
371.500000	127.818674 
372.000000	127.592946 
372.500000	127.430909 
373.000000	127.453916 
373.500000	127.688227 
374.000000	127.806424 
374.500000	127.712924 
375.000000	127.597818 
375.500000	127.684159 
376.000000	127.813030 
376.500000	127.754734 
377.000000	127.394856 
377.500000	126.876257 
378.000000	126.268545 
378.500000	125.659537 
379.000000	125.054727 
379.500000	124.405621 
380.000000	123.432939 
380.500000	122.237583 
381.000000	120.878106 
381.500000	119.649174 
382.000000	118.524719 
382.500000	117.538469 
383.000000	116.475689 
383.500000	115.325818 
384.000000	114.094583 
384.500000	112.925053 
385.000000	111.824916 
385.500000	110.759901 
386.000000	109.773734 
386.500000	108.989477 
387.000000	108.332106 
387.500000	107.677159 
388.000000	106.911530 
388.500000	106.234757 
389.000000	105.614977 
389.500000	105.322431 
390.000000	105.268765 
390.500000	105.299772 
391.000000	105.145886 
391.500000	104.928037 
392.000000	104.817431 
392.500000	104.759863 
393.000000	104.687621 
393.500000	104.525628 
394.000000	104.318469 
394.500000	103.905969 
395.000000	103.493257 
395.500000	103.226878 
396.000000	103.184295 
396.500000	103.105946 
397.000000	102.995378 
397.500000	102.813136 
398.000000	102.699621 
398.500000	102.470810 
399.000000	102.083772 
399.500000	101.618803 
400.000000	101.259780 
400.500000	101.114583 
401.000000	100.933371 
401.500000	100.694901 
402.000000	100.477280 
402.500000	100.538681 
403.000000	100.915856 
403.500000	101.672606 
404.000000	102.668886 
404.500000	103.616234 
405.000000	104.459893 
405.500000	105.245916 
406.000000	106.281196 
406.500000	107.592424 
407.000000	108.954053 
407.500000	109.968318 
408.000000	110.436545 
408.500000	110.256189 
409.000000	109.935325 
409.500000	110.185257 
410.000000	111.041886 
410.500000	111.578681 
411.000000	110.903090 
411.500000	109.206333 
412.000000	107.316000 
412.500000	105.711840 
413.000000	104.284712 
413.500000	102.944871 
414.000000	101.699454 
414.500000	100.541598 
415.000000	99.748871  
415.500000	99.264037  
416.000000	99.071651  
416.500000	99.037909  
417.000000	99.126962  
417.500000	99.116318  
418.000000	99.035787  
418.500000	99.098098  
419.000000	99.373204  
419.500000	99.711371  
420.000000	99.886181  
420.500000	100.122840 
421.000000	100.500060 
421.500000	101.152719 
422.000000	101.863030 
422.500000	102.550378 
423.000000	103.061886 
423.500000	103.681257 
424.000000	104.435477 
424.500000	105.363621 
425.000000	106.133053 
425.500000	106.774143 
426.000000	107.279166 
426.500000	107.842727 
427.000000	108.496219 
427.500000	109.104545 
428.000000	109.471439 
428.500000	109.506469 
429.000000	109.434750 
429.500000	109.331636 
430.000000	109.277462 
430.500000	109.108780 
431.000000	108.918568 
431.500000	108.772196 
432.000000	108.840462 
432.500000	109.011931 
433.000000	109.279500 
433.500000	109.468257 
434.000000	109.611681 
434.500000	109.584848 
435.000000	109.606250 
435.500000	109.458909 
436.000000	109.308507 
436.500000	108.999924 
437.000000	108.716689 
437.500000	108.354333 
438.000000	108.058590 
438.500000	107.846295 
439.000000	107.804068 
439.500000	107.804022 
440.000000	107.802606 
440.500000	107.894515 
441.000000	108.036439 
441.500000	108.194242 
442.000000	108.415045 
442.500000	108.767750 
443.000000	109.159954 
443.500000	109.536727 
444.000000	109.910265 
444.500000	110.429659 
445.000000	111.000022 
445.500000	111.553946 
446.000000	112.213810 
446.500000	113.303734 
447.000000	114.816727 
447.500000	116.529416 
448.000000	118.289916 
448.500000	120.088500 
449.000000	121.941287 
449.500000	123.775454 
450.000000	125.602863 
450.500000	127.512537 
451.000000	129.546931 
451.500000	131.781681 
452.000000	134.146750 
452.500000	136.573287 
453.000000	138.839136 
453.500000	141.045530 
454.000000	143.584053 
454.500000	146.382560 
455.000000	149.207840 
455.500000	151.592621 
456.000000	153.855477 
456.500000	156.135992 
457.000000	158.884212 
457.500000	161.813757 
458.000000	164.971833 
458.500000	168.292098 
459.000000	171.937704 
459.500000	175.713666 
460.000000	179.493000 

