PE FL                   SPECTRUM    ASCII       PEDS        1.60        
  -1
CDSRT#23.SP
02/03/22
01:24:31.00
02/03/22
01:27:11.00


590.000000
1









LS55
310.00
5.00
5.00
SCAN
1
20
100
100
0
100
0
1
0
1
7
ON
560 280 
1 0 0
#HDR
-1
-1
#GR
NM

0.00002384185791015625
0.0
340.000000
0.500000
501
8
59.684181
16.890848
#DATA
340.000000	17.054000 
340.500000	16.890848 
341.000000	16.921878 
341.500000	17.077946 
342.000000	17.190757 
342.500000	17.185060 
343.000000	17.226545 
343.500000	17.344522 
344.000000	17.457712 
344.500000	17.465484 
345.000000	17.405151 
345.500000	17.410825 
346.000000	17.509015 
346.500000	17.598916 
347.000000	17.663196 
347.500000	17.757931 
348.000000	17.831234 
348.500000	17.854181 
349.000000	17.871340 
349.500000	17.958007 
350.000000	18.118530 
350.500000	18.222386 
351.000000	18.313439 
351.500000	18.430568 
352.000000	18.619000 
352.500000	18.739583 
353.000000	18.852780 
353.500000	18.938227 
354.000000	19.155780 
354.500000	19.317659 
355.000000	19.455143 
355.500000	19.520522 
356.000000	19.656446 
356.500000	19.855590 
357.000000	20.136613 
357.500000	20.368030 
358.000000	20.464507 
358.500000	20.411962 
359.000000	20.406272 
359.500000	20.567431 
360.000000	20.801401 
360.500000	21.017363 
361.000000	21.211734 
361.500000	21.408977 
362.000000	21.562196 
362.500000	21.683219 
363.000000	21.815454 
363.500000	21.963954 
364.000000	22.086643 
364.500000	22.171545 
365.000000	22.274045 
365.500000	22.391492 
366.000000	22.553742 
366.500000	22.694015 
367.000000	22.791734 
367.500000	22.889477 
368.000000	23.014818 
368.500000	23.202954 
369.000000	23.393242 
369.500000	23.662272 
370.000000	23.899015 
370.500000	24.140765 
371.000000	24.285787 
371.500000	24.515492 
372.000000	24.800113 
372.500000	25.147083 
373.000000	25.490636 
373.500000	25.855416 
374.000000	26.175045 
374.500000	26.439234 
375.000000	26.654545 
375.500000	26.899712 
376.000000	27.246272 
376.500000	27.698128 
377.000000	28.129606 
377.500000	28.519393 
378.000000	28.901500 
378.500000	29.294598 
379.000000	29.618931 
379.500000	29.916598 
380.000000	30.339613 
380.500000	30.983439 
381.000000	31.647681 
381.500000	32.153257 
382.000000	32.455840 
382.500000	32.751250 
383.000000	33.175856 
383.500000	33.757007 
384.000000	34.313272 
384.500000	34.862371 
385.000000	35.433242 
385.500000	36.022340 
386.000000	36.522287 
386.500000	36.921136 
387.000000	37.315818 
387.500000	37.832454 
388.000000	38.417454 
388.500000	38.977962 
389.000000	39.472030 
389.500000	39.967333 
390.000000	40.500757 
390.500000	40.985098 
391.000000	41.379886 
391.500000	41.780053 
392.000000	42.290962 
392.500000	42.965287 
393.000000	43.677280 
393.500000	44.290522 
394.000000	44.750348 
394.500000	45.161212 
395.000000	45.539083 
395.500000	45.984159 
396.000000	46.475878 
396.500000	47.073007 
397.000000	47.591628 
397.500000	48.020386 
398.000000	48.383530 
398.500000	48.826651 
399.000000	49.314840 
399.500000	49.779598 
400.000000	50.135840 
400.500000	50.462121 
401.000000	50.783378 
401.500000	51.085590 
402.000000	51.372590 
402.500000	51.744795 
403.000000	52.192045 
403.500000	52.675651 
404.000000	53.121287 
404.500000	53.474621 
405.000000	53.682681 
405.500000	53.829401 
406.000000	54.038174 
406.500000	54.410477 
407.000000	54.892893 
407.500000	55.399318 
408.000000	55.702477 
408.500000	55.782287 
409.000000	55.799636 
409.500000	56.040393 
410.000000	56.454106 
410.500000	56.802068 
411.000000	57.004007 
411.500000	57.087946 
412.000000	57.147015 
412.500000	57.261833 
413.000000	57.534545 
413.500000	57.854090 
414.000000	58.129015 
414.500000	58.297583 
415.000000	58.514015 
415.500000	58.741803 
416.000000	58.917969 
416.500000	59.027515 
417.000000	59.114257 
417.500000	59.139628 
418.000000	59.074734 
418.500000	59.105810 
419.000000	59.210962 
419.500000	59.412128 
420.000000	59.531757 
420.500000	59.642643 
421.000000	59.663803 
421.500000	59.684181 
422.000000	59.643113 
422.500000	59.538371 
423.000000	59.360492 
423.500000	59.176439 
424.000000	59.046590 
424.500000	58.965340 
425.000000	58.943568 
425.500000	58.866295 
426.000000	58.806022 
426.500000	58.734590 
427.000000	58.735386 
427.500000	58.697454 
428.000000	58.578022 
428.500000	58.404242 
429.000000	58.266348 
429.500000	58.170825 
430.000000	58.026371 
430.500000	57.760287 
431.000000	57.361151 
431.500000	57.096537 
432.000000	57.070757 
432.500000	57.069560 
433.000000	56.883371 
433.500000	56.527909 
434.000000	56.110386 
434.500000	55.708962 
435.000000	55.325219 
435.500000	55.071560 
436.000000	54.963825 
436.500000	54.947204 
437.000000	54.856636 
437.500000	54.617780 
438.000000	54.222060 
438.500000	53.840356 
439.000000	53.528643 
439.500000	53.242674 
440.000000	52.907007 
440.500000	52.537363 
441.000000	52.203795 
441.500000	51.906598 
442.000000	51.655303 
442.500000	51.313386 
443.000000	50.951575 
443.500000	50.571409 
444.000000	50.260356 
444.500000	49.896984 
445.000000	49.552325 
445.500000	49.220893 
446.000000	48.899621 
446.500000	48.503431 
447.000000	48.104734 
447.500000	47.808287 
448.000000	47.552462 
448.500000	47.184159 
449.000000	46.772265 
449.500000	46.430136 
450.000000	46.191507 
450.500000	45.919674 
451.000000	45.569833 
451.500000	45.186871 
452.000000	44.800871 
452.500000	44.481681 
453.000000	44.222568 
453.500000	43.977659 
454.000000	43.580681 
454.500000	43.110242 
455.000000	42.763848 
455.500000	42.567280 
456.000000	42.395803 
456.500000	42.112893 
457.000000	41.871068 
457.500000	41.580234 
458.000000	41.190636 
458.500000	40.654871 
459.000000	40.253340 
459.500000	39.924446 
460.000000	39.643606 
460.500000	39.381537 
461.000000	39.263689 
461.500000	39.119628 
462.000000	38.819500 
462.500000	38.406803 
463.000000	38.037310 
463.500000	37.724856 
464.000000	37.540287 
464.500000	37.416303 
465.000000	37.236704 
465.500000	36.862818 
466.000000	36.435954 
466.500000	36.132848 
467.000000	35.977613 
467.500000	35.772181 
468.000000	35.449386 
468.500000	35.149234 
469.000000	34.976212 
469.500000	34.879931 
470.000000	34.670386 
470.500000	34.425143 
471.000000	34.214106 
471.500000	34.027537 
472.000000	33.721969 
472.500000	33.424643 
473.000000	33.222886 
473.500000	33.059590 
474.000000	32.784643 
474.500000	32.520818 
475.000000	32.375787 
475.500000	32.308848 
476.000000	32.211689 
476.500000	32.004037 
477.000000	31.770924 
477.500000	31.550371 
478.000000	31.375810 
478.500000	31.213643 
479.000000	31.032840 
479.500000	30.844083 
480.000000	30.685386 
480.500000	30.501431 
481.000000	30.266477 
481.500000	30.092689 
482.000000	29.987863 
482.500000	29.868765 
483.000000	29.657446 
483.500000	29.363045 
484.000000	29.147590 
484.500000	29.081545 
485.000000	29.064613 
485.500000	28.964446 
486.000000	28.796613 
486.500000	28.660787 
487.000000	28.576416 
487.500000	28.506356 
488.000000	28.349015 
488.500000	28.180219 
489.000000	27.995515 
489.500000	27.895757 
490.000000	27.829439 
490.500000	27.737590 
491.000000	27.572977 
491.500000	27.406053 
492.000000	27.288325 
492.500000	27.211280 
493.000000	27.182181 
493.500000	27.150439 
494.000000	27.074712 
494.500000	26.923106 
495.000000	26.780181 
495.500000	26.788416 
496.000000	26.866719 
496.500000	26.861378 
497.000000	26.726090 
497.500000	26.626939 
498.000000	26.574045 
498.500000	26.498378 
499.000000	26.354492 
499.500000	26.241780 
500.000000	26.179765 
500.500000	26.191227 
501.000000	26.226196 
501.500000	26.287393 
502.000000	26.359022 
502.500000	26.408712 
503.000000	26.411992 
503.500000	26.330712 
504.000000	26.241068 
504.500000	26.183287 
505.000000	26.204075 
505.500000	26.236878 
506.000000	26.281303 
506.500000	26.255727 
507.000000	26.186750 
507.500000	26.148151 
508.000000	26.160007 
508.500000	26.151962 
509.000000	26.096992 
509.500000	26.092939 
510.000000	26.129174 
510.500000	26.174848 
511.000000	26.150621 
511.500000	26.096484 
512.000000	26.075810 
512.500000	26.077446 
513.000000	26.080166 
513.500000	26.057333 
514.000000	26.039333 
514.500000	25.969628 
515.000000	25.929674 
515.500000	25.843151 
516.000000	25.824992 
516.500000	25.825090 
517.000000	25.841787 
517.500000	25.836727 
518.000000	25.837340 
518.500000	25.815401 
519.000000	25.797969 
519.500000	25.781681 
520.000000	25.744484 
520.500000	25.705416 
521.000000	25.696136 
521.500000	25.715643 
522.000000	25.697265 
522.500000	25.577636 
523.000000	25.489204 
523.500000	25.450856 
524.000000	25.441681 
524.500000	25.369121 
525.000000	25.341553 
525.500000	25.305651 
526.000000	25.280946 
526.500000	25.247098 
527.000000	25.306931 
527.500000	25.363348 
528.000000	25.377712 
528.500000	25.277712 
529.000000	25.243166 
529.500000	25.236121 
530.000000	25.260924 
530.500000	25.190454 
531.000000	25.072106 
531.500000	24.899333 
532.000000	24.808651 
532.500000	24.752393 
533.000000	24.775136 
533.500000	24.829401 
534.000000	24.850681 
534.500000	24.776583 
535.000000	24.635098 
535.500000	24.530969 
536.000000	24.528424 
536.500000	24.564151 
537.000000	24.562037 
537.500000	24.538242 
538.000000	24.534454 
538.500000	24.510848 
539.000000	24.437159 
539.500000	24.259553 
540.000000	24.069560 
540.500000	23.938515 
541.000000	23.890863 
541.500000	23.944416 
542.000000	24.039257 
542.500000	24.097939 
543.000000	24.028977 
543.500000	23.915969 
544.000000	23.851196 
544.500000	23.841818 
545.000000	23.807166 
545.500000	23.705454 
546.000000	23.696030 
546.500000	23.718469 
547.000000	23.703598 
547.500000	23.551863 
548.000000	23.407568 
548.500000	23.288469 
549.000000	23.223265 
549.500000	23.180545 
550.000000	23.191454 
550.500000	23.200340 
551.000000	23.155818 
551.500000	23.101575 
552.000000	23.058643 
552.500000	22.987090 
553.000000	22.816424 
553.500000	22.674340 
554.000000	22.626628 
554.500000	22.724992 
555.000000	22.780962 
555.500000	22.766780 
556.000000	22.703939 
556.500000	22.682886 
557.000000	22.657007 
557.500000	22.572916 
558.000000	22.504234 
558.500000	22.483856 
559.000000	22.534068 
559.500000	22.498689 
560.000000	22.427356 
560.500000	22.305636 
561.000000	22.191280 
561.500000	22.070204 
562.000000	22.019227 
562.500000	22.031628 
563.000000	22.008765 
563.500000	21.893606 
564.000000	21.749651 
564.500000	21.713189 
565.000000	21.729454 
565.500000	21.709174 
566.000000	21.594765 
566.500000	21.497030 
567.000000	21.440848 
567.500000	21.395189 
568.000000	21.344371 
568.500000	21.345916 
569.000000	21.428931 
569.500000	21.442204 
570.000000	21.336613 
570.500000	21.142939 
571.000000	21.002954 
571.500000	20.887750 
572.000000	20.852863 
572.500000	20.888977 
573.000000	20.890575 
573.500000	20.805060 
574.000000	20.631174 
574.500000	20.522265 
575.000000	20.477507 
575.500000	20.522878 
576.000000	20.526946 
576.500000	20.520416 
577.000000	20.462469 
577.500000	20.468053 
578.000000	20.497643 
578.500000	20.479477 
579.000000	20.375727 
579.500000	20.263257 
580.000000	20.181696 
580.500000	20.071871 
581.000000	19.996659 
581.500000	19.969015 
582.000000	19.998545 
582.500000	19.993803 
583.000000	19.948128 
583.500000	19.887325 
584.000000	19.835977 
584.500000	19.780878 
585.000000	19.707598 
585.500000	19.636856 
586.000000	19.557621 
586.500000	19.491462 
587.000000	19.448962 
587.500000	19.412674 
588.000000	19.381621 
588.500000	19.395893 
589.000000	19.412750 
589.500000	19.306651 
590.000000	19.051000 

