PE FL                   SPECTRUM    ASCII       PEDS        1.60        
  -1
CDSRT#27.SP
02/03/22
01:35:05.00
02/03/22
01:37:07.00


450.000000
1









LS55
490.00
5.00
5.00
SCAN
1
20
100
100
0
100
0
0
0
1
7
ON
450 400 
1 0 0
#HDR
-1
-1
#GR
NM

0.00002384185791015625
0.0
270.000000
0.500000
361
8
41.860348
4.366999
#DATA
270.000000	17.285000 
270.500000	16.712159 
271.000000	16.436621 
271.500000	16.469189 
272.000000	16.602568 
272.500000	16.584659 
273.000000	16.452106 
273.500000	16.352106 
274.000000	16.352704 
274.500000	16.400522 
275.000000	16.356045 
275.500000	16.289500 
276.000000	16.193750 
276.500000	16.141128 
277.000000	16.099060 
277.500000	16.037265 
278.000000	15.928765 
278.500000	15.836015 
279.000000	15.868280 
279.500000	15.991553 
280.000000	16.084128 
280.500000	16.024893 
281.000000	15.903431 
281.500000	15.773386 
282.000000	15.699719 
282.500000	15.681666 
283.000000	15.716734 
283.500000	15.722537 
284.000000	15.697750 
284.500000	15.677075 
285.000000	15.701303 
285.500000	15.696356 
286.000000	15.641909 
286.500000	15.656992 
287.000000	15.745719 
287.500000	15.868803 
288.000000	15.973787 
288.500000	16.115992 
289.000000	16.284378 
289.500000	16.466984 
290.000000	16.539931 
290.500000	16.517075 
291.000000	16.495181 
291.500000	16.644553 
292.000000	16.968590 
292.500000	17.293409 
293.000000	17.534174 
293.500000	17.734712 
294.000000	17.933454 
294.500000	18.139560 
295.000000	18.376378 
295.500000	18.790962 
296.000000	19.284333 
296.500000	19.784189 
297.000000	20.115598 
297.500000	20.442272 
298.000000	20.828280 
298.500000	21.383613 
299.000000	22.009068 
299.500000	22.609787 
300.000000	23.152136 
300.500000	23.642946 
301.000000	24.148272 
301.500000	24.572257 
302.000000	24.977636 
302.500000	25.376606 
303.000000	25.827159 
303.500000	26.229750 
304.000000	26.579871 
304.500000	26.845280 
305.000000	27.054007 
305.500000	27.206204 
306.000000	27.382772 
306.500000	27.538446 
307.000000	27.682810 
307.500000	27.751181 
308.000000	27.857575 
308.500000	27.932409 
309.000000	28.022924 
309.500000	28.044340 
310.000000	28.009833 
310.500000	27.880409 
311.000000	27.838371 
311.500000	27.949613 
312.000000	28.118772 
312.500000	28.105106 
313.000000	27.948628 
313.500000	27.801795 
314.000000	27.809196 
314.500000	27.841212 
315.000000	27.909371 
315.500000	27.927946 
316.000000	27.850946 
316.500000	27.621113 
317.000000	27.427090 
317.500000	27.400446 
318.000000	27.540212 
318.500000	27.734696 
319.000000	27.860363 
319.500000	27.859045 
320.000000	27.733219 
320.500000	27.657022 
321.000000	27.753954 
321.500000	27.932143 
322.000000	28.032386 
322.500000	27.982166 
323.000000	27.915196 
323.500000	27.918303 
324.000000	28.047098 
324.500000	28.193681 
325.000000	28.325287 
325.500000	28.416015 
326.000000	28.586984 
326.500000	28.783234 
327.000000	28.955962 
327.500000	29.076628 
328.000000	29.176946 
328.500000	29.294310 
329.000000	29.439522 
329.500000	29.585530 
330.000000	29.766189 
330.500000	29.990659 
331.000000	30.188924 
331.500000	30.295424 
332.000000	30.357068 
332.500000	30.514204 
333.000000	30.829181 
333.500000	31.154954 
334.000000	31.375537 
334.500000	31.513931 
335.000000	31.633333 
335.500000	31.791196 
336.000000	31.941196 
336.500000	32.147651 
337.000000	32.425750 
337.500000	32.793530 
338.000000	33.098840 
338.500000	33.268037 
339.000000	33.361166 
339.500000	33.520083 
340.000000	33.812553 
340.500000	34.048106 
341.000000	34.234863 
341.500000	34.411598 
342.000000	34.713734 
342.500000	34.941462 
343.000000	35.104075 
343.500000	35.201212 
344.000000	35.409340 
344.500000	35.684537 
345.000000	36.005909 
345.500000	36.271507 
346.000000	36.480143 
346.500000	36.644469 
347.000000	36.827840 
347.500000	37.018068 
348.000000	37.201992 
348.500000	37.353295 
349.000000	37.505530 
349.500000	37.702257 
350.000000	37.959590 
350.500000	38.234053 
351.000000	38.478613 
351.500000	38.725727 
352.000000	38.902356 
352.500000	39.009378 
353.000000	39.146946 
353.500000	39.432181 
354.000000	39.715484 
354.500000	39.872643 
355.000000	39.908204 
355.500000	39.990590 
356.000000	40.160340 
356.500000	40.371727 
357.000000	40.594598 
357.500000	40.763219 
358.000000	40.960803 
358.500000	41.205598 
359.000000	41.522840 
359.500000	41.708757 
360.000000	41.760386 
360.500000	41.718545 
361.000000	41.743401 
361.500000	41.797803 
362.000000	41.811212 
362.500000	41.836272 
363.000000	41.835674 
363.500000	41.860348 
364.000000	41.808053 
364.500000	41.727386 
365.000000	41.591833 
365.500000	41.458446 
366.000000	41.335575 
366.500000	41.205454 
367.000000	41.050484 
367.500000	40.804318 
368.000000	40.563159 
368.500000	40.267174 
369.000000	40.021219 
369.500000	39.741196 
370.000000	39.451992 
370.500000	39.074416 
371.000000	38.653030 
371.500000	38.204106 
372.000000	37.767121 
372.500000	37.397636 
373.000000	37.043196 
373.500000	36.607469 
374.000000	36.063909 
374.500000	35.582424 
375.000000	35.188174 
375.500000	34.686560 
376.000000	34.012181 
376.500000	33.319765 
377.000000	32.855250 
377.500000	32.496310 
378.000000	32.071204 
378.500000	31.544371 
379.000000	31.005537 
379.500000	30.516537 
380.000000	30.084545 
380.500000	29.634689 
381.000000	29.126363 
381.500000	28.526136 
382.000000	27.945477 
382.500000	27.438787 
383.000000	26.981659 
383.500000	26.514295 
384.000000	26.004348 
384.500000	25.486939 
385.000000	24.959386 
385.500000	24.429848 
386.000000	23.882712 
386.500000	23.415840 
387.000000	22.998939 
387.500000	22.600106 
388.000000	22.180015 
388.500000	21.749090 
389.000000	21.340962 
389.500000	20.896931 
390.000000	20.419924 
390.500000	20.013371 
391.000000	19.707886 
391.500000	19.458151 
392.000000	19.155916 
392.500000	18.817166 
393.000000	18.452121 
393.500000	18.102946 
394.000000	17.735265 
394.500000	17.358234 
395.000000	16.993674 
395.500000	16.645181 
396.000000	16.314045 
396.500000	16.013931 
397.000000	15.705500 
397.500000	15.347537 
398.000000	14.992106 
398.500000	14.713318 
399.000000	14.462916 
399.500000	14.181537 
400.000000	13.877795 
400.500000	13.624053 
401.000000	13.418371 
401.500000	13.162818 
402.000000	12.861280 
402.500000	12.548515 
403.000000	12.265795 
403.500000	12.063765 
404.000000	11.941212 
404.500000	11.855734 
405.000000	11.708083 
405.500000	11.521696 
406.000000	11.328151 
406.500000	11.160189 
407.000000	10.958189 
407.500000	10.716469 
408.000000	10.464212 
408.500000	10.211159 
409.000000	10.004750 
409.500000	9.791386  
410.000000	9.573204  
410.500000	9.330537  
411.000000	9.149780  
411.500000	8.999568  
412.000000	8.872780  
412.500000	8.733962  
413.000000	8.601272  
413.500000	8.445803  
414.000000	8.268257  
414.500000	8.125280  
415.000000	8.030893  
415.500000	7.935340  
416.000000	7.804303  
416.500000	7.672424  
417.000000	7.546499  
417.500000	7.424962  
418.000000	7.314249  
418.500000	7.226431  
419.000000	7.139780  
419.500000	7.046272  
420.000000	6.933674  
420.500000	6.871840  
421.000000	6.846689  
421.500000	6.825719  
422.000000	6.739916  
422.500000	6.662606  
423.000000	6.614916  
423.500000	6.578840  
424.000000	6.493439  
424.500000	6.403401  
425.000000	6.357424  
425.500000	6.332833  
426.000000	6.273401  
426.500000	6.193954  
427.000000	6.138606  
427.500000	6.088909  
428.000000	6.064356  
428.500000	6.028772  
429.000000	5.966090  
429.500000	5.882143  
430.000000	5.797924  
430.500000	5.735742  
431.000000	5.701439  
431.500000	5.683409  
432.000000	5.647053  
432.500000	5.590083  
433.000000	5.518727  
433.500000	5.485507  
434.000000	5.461106  
434.500000	5.403348  
435.000000	5.315348  
435.500000	5.242727  
436.000000	5.221568  
436.500000	5.226083  
437.000000	5.204886  
437.500000	5.150871  
438.000000	5.099939  
438.500000	5.077886  
439.000000	5.064492  
439.500000	5.027878  
440.000000	4.957628  
440.500000	4.894083  
441.000000	4.859553  
441.500000	4.860181  
442.000000	4.856833  
442.500000	4.829143  
443.000000	4.782977  
443.500000	4.751992  
444.000000	4.733848  
444.500000	4.728318  
445.000000	4.707522  
445.500000	4.683227  
446.000000	4.639628  
446.500000	4.613068  
447.000000	4.578310  
447.500000	4.550681  
448.000000	4.513227  
448.500000	4.520575  
449.000000	4.546340  
449.500000	4.508893  
450.000000	4.366999  

