PE FL                   SPECTRUM    ASCII       PEDS        1.60        
  -1
CDSRT#26.SP
02/03/22
01:33:09.00
02/03/22
01:34:47.00


400.000000
1









LS55
450.00
5.00
5.00
SCAN
1
20
100
100
0
100
0
0
0
1
7
ON
420 400 
1 0 0
#HDR
-1
-1
#GR
NM

0.00002384185791015625
0.0
250.000000
0.500000
301
8
56.580083
19.692000
#DATA
250.000000	19.978000 
250.500000	20.311265 
251.000000	20.578007 
251.500000	20.827674 
252.000000	21.060068 
252.500000	21.221886 
253.000000	21.202287 
253.500000	21.250469 
254.000000	21.406893 
254.500000	21.566780 
255.000000	21.608666 
255.500000	21.542113 
256.000000	21.550492 
256.500000	21.619363 
257.000000	21.701477 
257.500000	21.772143 
258.000000	21.953818 
258.500000	22.232939 
259.000000	22.588053 
259.500000	23.041606 
260.000000	23.470424 
260.500000	23.818439 
261.000000	24.073863 
261.500000	24.405121 
262.000000	24.658068 
262.500000	24.811962 
263.000000	24.919393 
263.500000	25.098363 
264.000000	25.245871 
264.500000	25.241492 
265.000000	25.334621 
265.500000	25.566575 
266.000000	25.850916 
266.500000	26.027727 
267.000000	26.238818 
267.500000	26.420765 
268.000000	26.545666 
268.500000	26.576659 
269.000000	26.613666 
269.500000	26.701757 
270.000000	26.780484 
270.500000	26.862378 
271.000000	27.009560 
271.500000	27.205416 
272.000000	27.373477 
272.500000	27.467704 
273.000000	27.468992 
273.500000	27.459090 
274.000000	27.485765 
274.500000	27.495151 
275.000000	27.388356 
275.500000	27.205840 
276.000000	27.085537 
276.500000	27.035795 
277.000000	26.983075 
277.500000	26.908742 
278.000000	26.903431 
278.500000	26.941962 
279.000000	26.938257 
279.500000	26.874810 
280.000000	26.746689 
280.500000	26.634462 
281.000000	26.566174 
281.500000	26.588954 
282.000000	26.573204 
282.500000	26.480333 
283.000000	26.350840 
283.500000	26.289318 
284.000000	26.270696 
284.500000	26.218575 
285.000000	26.179750 
285.500000	26.265386 
286.000000	26.447863 
286.500000	26.543333 
287.000000	26.422121 
287.500000	26.255939 
288.000000	26.206174 
288.500000	26.324598 
289.000000	26.478454 
289.500000	26.622492 
290.000000	26.713484 
290.500000	26.837272 
291.000000	27.036151 
291.500000	27.334787 
292.000000	27.636984 
292.500000	27.955462 
293.000000	28.306515 
293.500000	28.806893 
294.000000	29.345871 
294.500000	29.999598 
295.000000	30.642159 
295.500000	31.428295 
296.000000	32.253818 
296.500000	33.191234 
297.000000	34.055333 
297.500000	34.926030 
298.000000	35.872613 
298.500000	37.010507 
299.000000	38.172204 
299.500000	39.256696 
300.000000	40.328924 
300.500000	41.392545 
301.000000	42.343484 
301.500000	43.017621 
302.000000	43.586606 
302.500000	44.203931 
303.000000	44.971318 
303.500000	45.596106 
304.000000	46.036878 
304.500000	46.337015 
305.000000	46.707696 
305.500000	47.106250 
306.000000	47.434969 
306.500000	47.538878 
307.000000	47.445772 
307.500000	47.236053 
308.000000	47.043113 
308.500000	46.868181 
309.000000	46.649045 
309.500000	46.365734 
310.000000	46.139007 
310.500000	45.881946 
311.000000	45.509272 
311.500000	45.035053 
312.000000	44.553386 
312.500000	44.156666 
313.000000	43.709045 
313.500000	43.184363 
314.000000	42.618484 
314.500000	42.154537 
315.000000	41.757469 
315.500000	41.346515 
316.000000	40.817984 
316.500000	40.300454 
317.000000	39.892401 
317.500000	39.530909 
318.000000	39.137204 
318.500000	38.825651 
319.000000	38.621666 
319.500000	38.449022 
320.000000	38.087636 
320.500000	37.703098 
321.000000	37.473863 
321.500000	37.452590 
322.000000	37.461545 
322.500000	37.443757 
323.000000	37.332227 
323.500000	37.207893 
324.000000	37.117909 
324.500000	37.118106 
325.000000	37.166204 
325.500000	37.175015 
326.000000	37.082848 
326.500000	37.015810 
327.000000	37.100545 
327.500000	37.331060 
328.000000	37.547545 
328.500000	37.656295 
329.000000	37.800810 
329.500000	38.090371 
330.000000	38.467424 
330.500000	38.816280 
331.000000	39.064492 
331.500000	39.237363 
332.000000	39.423825 
332.500000	39.715272 
333.000000	40.109409 
333.500000	40.529424 
334.000000	40.903401 
334.500000	41.228871 
335.000000	41.486939 
335.500000	41.770265 
336.000000	42.175613 
336.500000	42.601333 
337.000000	42.950969 
337.500000	43.309280 
338.000000	43.754659 
338.500000	44.192893 
339.000000	44.542704 
339.500000	44.829984 
340.000000	45.144189 
340.500000	45.423098 
341.000000	45.694454 
341.500000	46.026424 
342.000000	46.358386 
342.500000	46.643674 
343.000000	46.933893 
343.500000	47.285946 
344.000000	47.594159 
344.500000	47.935439 
345.000000	48.307075 
345.500000	48.734128 
346.000000	49.095712 
346.500000	49.479212 
347.000000	49.860537 
347.500000	50.227053 
348.000000	50.421075 
348.500000	50.640045 
349.000000	51.003553 
349.500000	51.526537 
350.000000	51.909045 
350.500000	52.129689 
351.000000	52.348787 
351.500000	52.676848 
352.000000	53.111757 
352.500000	53.416363 
353.000000	53.630871 
353.500000	53.737931 
354.000000	53.959196 
354.500000	54.219689 
355.000000	54.565886 
355.500000	54.745340 
356.000000	54.890143 
356.500000	55.124931 
357.000000	55.504984 
357.500000	55.741666 
358.000000	55.815098 
358.500000	55.731212 
359.000000	55.801106 
359.500000	55.987030 
360.000000	56.291143 
360.500000	56.493477 
361.000000	56.504318 
361.500000	56.423856 
362.000000	56.448689 
362.500000	56.580083 
363.000000	56.560537 
363.500000	56.489704 
364.000000	56.339825 
364.500000	56.175992 
365.000000	55.850333 
365.500000	55.522060 
366.000000	55.274500 
366.500000	55.109386 
367.000000	54.929098 
367.500000	54.675712 
368.000000	54.290212 
368.500000	53.753431 
369.000000	53.205727 
369.500000	52.868151 
370.000000	52.726212 
370.500000	52.621446 
371.000000	52.235454 
371.500000	51.697840 
372.000000	51.115681 
372.500000	50.704393 
373.000000	50.169022 
373.500000	49.498871 
374.000000	48.697151 
374.500000	48.038371 
375.000000	47.365113 
375.500000	46.671303 
376.000000	45.971325 
376.500000	45.414287 
377.000000	44.924431 
377.500000	44.385871 
378.000000	43.710166 
378.500000	42.962878 
379.000000	42.195750 
379.500000	41.504000 
380.000000	40.863371 
380.500000	40.252893 
381.000000	39.615598 
381.500000	38.993674 
382.000000	38.309772 
382.500000	37.632219 
383.000000	36.960037 
383.500000	36.356977 
384.000000	35.830007 
384.500000	35.323159 
385.000000	34.740636 
385.500000	34.050636 
386.000000	33.398696 
386.500000	32.776833 
387.000000	32.140272 
387.500000	31.418621 
388.000000	30.726174 
388.500000	30.111606 
389.000000	29.543416 
389.500000	29.019068 
390.000000	28.468863 
390.500000	27.920227 
391.000000	27.359568 
391.500000	26.938878 
392.000000	26.557113 
392.500000	26.147022 
393.000000	25.646310 
393.500000	25.137098 
394.000000	24.631787 
394.500000	24.072219 
395.000000	23.495575 
395.500000	22.949075 
396.000000	22.514053 
396.500000	22.119219 
397.000000	21.728931 
397.500000	21.224507 
398.000000	20.712250 
398.500000	20.232636 
399.000000	19.914083 
399.500000	19.752909 
400.000000	19.692000 

