PE FL                   SPECTRUM    ASCII       PEDS        1.60        
  -1
CDSRT#22.SP
02/03/22
01:20:38.00
02/03/22
01:23:27.00


560.000000
1









LS55
280.00
5.00
5.00
SCAN
1
20
100
100
0
100
0
1
0
1
7
ON
580 310 
1 0 0
#HDR
-1
-1
#GR
NM

0.00002384185791015625
0.0
300.000000
0.500000
521
8
324.177000
9.570613
#DATA
300.000000	37.247999  
300.500000	43.596196  
301.000000	49.813590  
301.500000	56.125022  
302.000000	62.968492  
302.500000	70.213530  
303.000000	77.565719  
303.500000	84.522257  
304.000000	91.068560  
304.500000	97.169196  
305.000000	102.961742 
305.500000	108.236325 
306.000000	113.019401 
306.500000	117.397856 
307.000000	121.636924 
307.500000	125.344916 
308.000000	128.277363 
308.500000	130.478393 
309.000000	132.433848 
309.500000	134.100340 
310.000000	135.370000 
310.500000	136.243219 
311.000000	136.838424 
311.500000	137.047560 
312.000000	136.897924 
312.500000	136.350931 
313.000000	135.427128 
313.500000	134.198666 
314.000000	133.004204 
314.500000	131.884537 
315.000000	130.806416 
315.500000	129.523651 
316.000000	128.121500 
316.500000	126.671742 
317.000000	125.169431 
317.500000	123.676946 
318.000000	121.970424 
318.500000	120.282121 
319.000000	118.431643 
319.500000	116.586878 
320.000000	114.703181 
320.500000	113.159340 
321.000000	111.722795 
321.500000	110.112954 
322.000000	108.333590 
322.500000	106.483666 
323.000000	104.787909 
323.500000	102.896196 
324.000000	101.028348 
324.500000	98.960727  
325.000000	97.153734  
325.500000	95.381787  
326.000000	93.759227  
326.500000	92.014931  
327.000000	90.250022  
327.500000	88.450439  
328.000000	86.564068  
328.500000	84.691901  
329.000000	82.916000  
329.500000	81.352499  
330.000000	79.864689  
330.500000	78.451515  
331.000000	76.866068  
331.500000	75.035325  
332.000000	73.195265  
332.500000	71.606924  
333.000000	70.335113  
333.500000	69.072462  
334.000000	67.736136  
334.500000	66.304651  
335.000000	64.964931  
335.500000	63.743174  
336.000000	62.739060  
336.500000	61.746719  
337.000000	60.821045  
337.500000	59.788750  
338.000000	58.843424  
338.500000	57.863924  
339.000000	56.986068  
339.500000	55.993886  
340.000000	55.089121  
340.500000	54.226462  
341.000000	53.472439  
341.500000	52.600371  
342.000000	51.687280  
342.500000	50.877954  
343.000000	50.104545  
343.500000	49.225265  
344.000000	48.296446  
344.500000	47.459060  
345.000000	46.675742  
345.500000	45.778962  
346.000000	44.892492  
346.500000	44.120674  
347.000000	43.485712  
347.500000	42.780159  
348.000000	42.045075  
348.500000	41.304810  
349.000000	40.680318  
349.500000	40.167909  
350.000000	39.790515  
350.500000	39.561166  
351.000000	39.334356  
351.500000	39.038287  
352.000000	38.587651  
352.500000	38.075287  
353.000000	37.584106  
353.500000	37.297863  
354.000000	37.132727  
354.500000	37.002606  
355.000000	36.809795  
355.500000	36.726136  
356.000000	36.713765  
356.500000	36.703378  
357.000000	36.579257  
357.500000	36.492250  
358.000000	36.442719  
358.500000	36.495113  
359.000000	36.523772  
359.500000	36.648022  
360.000000	36.702136  
360.500000	36.676492  
361.000000	36.427250  
361.500000	36.204689  
362.000000	36.063674  
362.500000	36.073871  
363.000000	35.981257  
363.500000	35.798007  
364.000000	35.606128  
364.500000	35.496878  
365.000000	35.377159  
365.500000	35.175969  
366.000000	34.880681  
366.500000	34.579598  
367.000000	34.326848  
367.500000	34.157484  
368.000000	34.052962  
368.500000	33.900333  
369.000000	33.607962  
369.500000	33.374378  
370.000000	33.340439  
370.500000	33.556795  
371.000000	33.682840  
371.500000	33.703780  
372.000000	33.619568  
372.500000	33.520765  
373.000000	33.318431  
373.500000	33.171818  
374.000000	33.183999  
374.500000	33.305181  
375.000000	33.448590  
375.500000	33.614954  
376.000000	33.900916  
376.500000	34.109621  
377.000000	34.150810  
377.500000	34.086393  
378.000000	34.170272  
378.500000	34.431265  
379.000000	34.605515  
379.500000	34.600196  
380.000000	34.555386  
380.500000	34.633212  
381.000000	34.719568  
381.500000	34.763121  
382.000000	34.758492  
382.500000	34.817393  
383.000000	34.900272  
383.500000	35.006522  
384.000000	35.058666  
384.500000	35.047515  
385.000000	35.094560  
385.500000	35.150272  
386.000000	35.044083  
386.500000	34.836719  
387.000000	34.714583  
387.500000	34.759242  
388.000000	34.765560  
388.500000	34.772143  
389.000000	34.796878  
389.500000	34.889590  
390.000000	34.859340  
390.500000	34.841287  
391.000000	34.768992  
391.500000	34.752022  
392.000000	34.717265  
392.500000	34.760962  
393.000000	34.699371  
393.500000	34.596310  
394.000000	34.453189  
394.500000	34.412090  
395.000000	34.338886  
395.500000	34.255946  
396.000000	34.214416  
396.500000	34.298212  
397.000000	34.363272  
397.500000	34.392037  
398.000000	34.445181  
398.500000	34.514075  
399.000000	34.543651  
399.500000	34.529136  
400.000000	34.529704  
400.500000	34.559848  
401.000000	34.602803  
401.500000	34.587265  
402.000000	34.535606  
402.500000	34.481651  
403.000000	34.538727  
403.500000	34.664734  
404.000000	34.728083  
404.500000	34.720098  
405.000000	34.728765  
405.500000	34.747151  
406.000000	34.705181  
406.500000	34.680704  
407.000000	34.745795  
407.500000	34.947075  
408.000000	35.063674  
408.500000	34.975583  
409.000000	34.684227  
409.500000	34.453613  
410.000000	34.400272  
410.500000	34.558386  
411.000000	34.722348  
411.500000	34.822893  
412.000000	34.819863  
412.500000	34.748386  
413.000000	34.655340  
413.500000	34.671962  
414.000000	34.800689  
414.500000	34.909810  
415.000000	34.884075  
415.500000	34.762083  
416.000000	34.718174  
416.500000	34.778272  
417.000000	34.891378  
417.500000	34.906053  
418.000000	34.840189  
418.500000	34.767696  
419.000000	34.742909  
419.500000	34.676310  
420.000000	34.528522  
420.500000	34.436871  
421.000000	34.463825  
421.500000	34.583181  
422.000000	34.599007  
422.500000	34.564598  
423.000000	34.505507  
423.500000	34.440325  
424.000000	34.298151  
424.500000	34.203136  
425.000000	34.303037  
425.500000	34.420439  
426.000000	34.305901  
426.500000	33.995840  
427.000000	33.908401  
427.500000	33.986159  
428.000000	33.995560  
428.500000	33.783962  
429.000000	33.640825  
429.500000	33.556560  
430.000000	33.562083  
430.500000	33.467356  
431.000000	33.423363  
431.500000	33.316310  
432.000000	33.258893  
432.500000	33.212378  
433.000000	33.197954  
433.500000	33.065621  
434.000000	32.897265  
434.500000	32.733666  
435.000000	32.622749  
435.500000	32.582356  
436.000000	32.575037  
436.500000	32.549113  
437.000000	32.479446  
437.500000	32.314719  
438.000000	32.147916  
438.500000	31.886712  
439.000000	31.621871  
439.500000	31.389507  
440.000000	31.218174  
440.500000	31.099378  
441.000000	31.054090  
441.500000	31.098606  
442.000000	31.064901  
442.500000	30.971287  
443.000000	30.734446  
443.500000	30.521590  
444.000000	30.241143  
444.500000	30.035053  
445.000000	29.951234  
445.500000	29.989265  
446.000000	29.995704  
446.500000	29.903575  
447.000000	29.688537  
447.500000	29.361939  
448.000000	29.046257  
448.500000	28.849636  
449.000000	28.733037  
449.500000	28.574939  
450.000000	28.329356  
450.500000	28.145128  
451.000000	27.989583  
451.500000	27.792257  
452.000000	27.530825  
452.500000	27.342227  
453.000000	27.177401  
453.500000	27.036969  
454.000000	26.890204  
454.500000	26.796053  
455.000000	26.754424  
455.500000	26.726545  
456.000000	26.663553  
456.500000	26.516393  
457.000000	26.243060  
457.500000	25.925515  
458.000000	25.682318  
458.500000	25.530166  
459.000000	25.436507  
459.500000	25.241992  
460.000000	24.960143  
460.500000	24.715068  
461.000000	24.631166  
461.500000	24.587007  
462.000000	24.572212  
462.500000	24.462750  
463.000000	24.379984  
463.500000	24.163363  
464.000000	23.901121  
464.500000	23.633522  
465.000000	23.460196  
465.500000	23.251962  
466.000000	23.069681  
466.500000	22.876250  
467.000000	22.713901  
467.500000	22.561007  
468.000000	22.435159  
468.500000	22.330416  
469.000000	22.202015  
469.500000	22.029500  
470.000000	21.856931  
470.500000	21.660227  
471.000000	21.461818  
471.500000	21.215689  
472.000000	21.038174  
472.500000	20.865537  
473.000000	20.764068  
473.500000	20.658734  
474.000000	20.619871  
474.500000	20.549840  
475.000000	20.447393  
475.500000	20.282946  
476.000000	20.068090  
476.500000	19.829348  
477.000000	19.566969  
477.500000	19.428378  
478.000000	19.367757  
478.500000	19.308386  
479.000000	19.162636  
479.500000	18.951704  
480.000000	18.756924  
480.500000	18.596401  
481.000000	18.515462  
481.500000	18.442818  
482.000000	18.411143  
482.500000	18.372060  
483.000000	18.337462  
483.500000	18.208280  
484.000000	18.015196  
484.500000	17.783348  
485.000000	17.643037  
485.500000	17.572318  
486.000000	17.572083  
486.500000	17.536340  
487.000000	17.413810  
487.500000	17.229909  
488.000000	17.075507  
488.500000	16.941969  
489.000000	16.776356  
489.500000	16.608643  
490.000000	16.443666  
490.500000	16.322113  
491.000000	16.253234  
491.500000	16.207810  
492.000000	16.081242  
492.500000	15.860075  
493.000000	15.698583  
493.500000	15.626022  
494.000000	15.535045  
494.500000	15.336219  
495.000000	15.270871  
495.500000	15.314166  
496.000000	15.385946  
496.500000	15.277318  
497.000000	15.104765  
497.500000	14.946856  
498.000000	14.904537  
498.500000	14.905484  
499.000000	14.875871  
499.500000	14.755916  
500.000000	14.644257  
500.500000	14.622136  
501.000000	14.661098  
501.500000	14.650795  
502.000000	14.588431  
502.500000	14.509530  
503.000000	14.464765  
503.500000	14.433568  
504.000000	14.371666  
504.500000	14.313151  
505.000000	14.236151  
505.500000	14.207954  
506.000000	14.123871  
506.500000	14.055742  
507.000000	13.971143  
507.500000	13.906340  
508.000000	13.804568  
508.500000	13.712992  
509.000000	13.646787  
509.500000	13.631325  
510.000000	13.618833  
510.500000	13.587234  
511.000000	13.469750  
511.500000	13.247401  
512.000000	13.058075  
512.500000	13.027931  
513.000000	13.075871  
513.500000	13.047568  
514.000000	12.946636  
514.500000	12.848856  
515.000000	12.789037  
515.500000	12.697454  
516.000000	12.586234  
516.500000	12.443712  
517.000000	12.333621  
517.500000	12.280166  
518.000000	12.328037  
518.500000	12.357469  
519.000000	12.305757  
519.500000	12.157333  
520.000000	12.052530  
520.500000	12.024325  
521.000000	12.044886  
521.500000	11.977969  
522.000000	11.841946  
522.500000	11.705030  
523.000000	11.672575  
523.500000	11.658272  
524.000000	11.639446  
524.500000	11.606545  
525.000000	11.545856  
525.500000	11.408946  
526.000000	11.184704  
526.500000	11.064886  
527.000000	11.021530  
527.500000	11.057325  
528.000000	11.064651  
528.500000	11.137818  
529.000000	11.133128  
529.500000	11.014287  
530.000000	10.809371  
530.500000	10.711818  
531.000000	10.679621  
531.500000	10.620121  
532.000000	10.532583  
532.500000	10.479068  
533.000000	10.445977  
533.500000	10.399257  
534.000000	10.316553  
534.500000	10.233962  
535.000000	10.190795  
535.500000	10.182909  
536.000000	10.199030  
536.500000	10.204166  
537.000000	10.159992  
537.500000	10.057712  
538.000000	9.931212   
538.500000	9.831621   
539.000000	9.814333   
539.500000	9.849833   
540.000000	9.842924   
540.500000	9.793848   
541.000000	9.717848   
541.500000	9.647272   
542.000000	9.591757   
542.500000	9.572696   
543.000000	9.570613   
543.500000	9.587166   
544.000000	9.625386   
544.500000	9.676939   
545.000000	9.738106   
545.500000	9.763022   
546.000000	9.823484   
546.500000	9.962272   
547.000000	10.130196  
547.500000	10.237568  
548.000000	10.275439  
548.500000	10.366696  
549.000000	10.617015  
549.500000	11.120856  
550.000000	11.811060  
550.500000	12.810727  
551.000000	14.220530  
551.500000	16.257136  
552.000000	18.905068  
552.500000	22.413590  
553.000000	26.794871  
553.500000	32.613545  
554.000000	40.073219  
554.500000	49.744227  
555.000000	61.817143  
555.500000	76.622227  
556.000000	94.273681  
556.500000	115.239272 
557.000000	139.345310 
557.500000	166.333462 
558.000000	196.322530 
558.500000	229.245098 
559.000000	263.219545 
559.500000	295.160068 
560.000000	324.177000 

