PE FL                   SPECTRUM    ASCII       PEDS        1.60        
  -1
CDSRT#25.SP
02/03/22
01:31:02.00
02/03/22
01:32:51.00


400.000000
1









LS55
420.00
5.00
5.00
SCAN
1
20
100
100
0
100
0
0
0
1
7
ON
540 280 
1 0 0
#HDR
-1
-1
#GR
NM

0.00002384185791015625
0.0
230.000000
0.500000
341
8
62.824037
17.008007
#DATA
230.000000	18.038000 
230.500000	18.051818 
231.000000	18.095553 
231.500000	18.133598 
232.000000	18.117333 
232.500000	18.045954 
233.000000	17.992037 
233.500000	18.031621 
234.000000	18.191143 
234.500000	18.435590 
235.000000	18.632893 
235.500000	18.775310 
236.000000	18.870515 
236.500000	19.007750 
237.000000	19.121242 
237.500000	19.207219 
238.000000	19.156310 
238.500000	19.124757 
239.000000	19.161204 
239.500000	19.244212 
240.000000	19.227189 
240.500000	19.208939 
241.000000	19.319712 
241.500000	19.555318 
242.000000	19.748000 
242.500000	19.827560 
243.000000	19.829053 
243.500000	19.775234 
244.000000	19.732833 
244.500000	19.711992 
245.000000	19.764901 
245.500000	19.850280 
246.000000	20.059090 
246.500000	20.304409 
247.000000	20.569477 
247.500000	20.866560 
248.000000	21.218636 
248.500000	21.560287 
249.000000	21.795143 
249.500000	21.976840 
250.000000	22.164098 
250.500000	22.339734 
251.000000	22.449856 
251.500000	22.480250 
252.000000	22.567681 
252.500000	22.694969 
253.000000	22.975992 
253.500000	23.225893 
254.000000	23.371560 
254.500000	23.406166 
255.000000	23.481871 
255.500000	23.594522 
256.000000	23.568878 
256.500000	23.573280 
257.000000	23.749106 
257.500000	24.201250 
258.000000	24.556363 
258.500000	24.821371 
259.000000	25.052469 
259.500000	25.475984 
260.000000	25.964659 
260.500000	26.535325 
261.000000	27.035280 
261.500000	27.306378 
262.000000	27.362257 
262.500000	27.479280 
263.000000	27.766931 
263.500000	28.092121 
264.000000	28.294356 
264.500000	28.372053 
265.000000	28.572598 
265.500000	28.932954 
266.000000	29.420719 
266.500000	29.788234 
267.000000	30.071818 
267.500000	30.359757 
268.000000	30.772007 
268.500000	31.013628 
269.000000	31.071431 
269.500000	31.124977 
270.000000	31.337037 
270.500000	31.579500 
271.000000	31.676492 
271.500000	31.714742 
272.000000	31.789409 
272.500000	31.937446 
273.000000	32.066969 
273.500000	32.118575 
274.000000	32.091272 
274.500000	32.047219 
275.000000	32.027113 
275.500000	32.026386 
276.000000	32.055416 
276.500000	32.058924 
277.000000	32.019477 
277.500000	31.878393 
278.000000	31.648977 
278.500000	31.407734 
279.000000	31.302651 
279.500000	31.335227 
280.000000	31.381681 
280.500000	31.257280 
281.000000	30.994325 
281.500000	30.793916 
282.000000	30.697803 
282.500000	30.665878 
283.000000	30.650378 
283.500000	30.627113 
284.000000	30.473242 
284.500000	30.201272 
285.000000	30.056416 
285.500000	30.202598 
286.000000	30.429909 
286.500000	30.435409 
287.000000	30.263409 
287.500000	30.048363 
288.000000	29.803340 
288.500000	29.513507 
289.000000	29.324704 
289.500000	29.299825 
290.000000	29.340727 
290.500000	29.382151 
291.000000	29.556833 
291.500000	29.885393 
292.000000	30.301621 
292.500000	30.779780 
293.000000	31.406969 
293.500000	32.186045 
294.000000	33.055446 
294.500000	34.086954 
295.000000	35.377401 
295.500000	36.967590 
296.000000	38.627212 
296.500000	40.184651 
297.000000	41.633613 
297.500000	43.202492 
298.000000	45.022681 
298.500000	47.010590 
299.000000	48.860477 
299.500000	50.519030 
300.000000	52.211833 
300.500000	54.081272 
301.000000	55.882719 
301.500000	57.446492 
302.000000	58.693106 
302.500000	59.685462 
303.000000	60.414469 
303.500000	60.990037 
304.000000	61.551477 
304.500000	62.115590 
305.000000	62.577068 
305.500000	62.805393 
306.000000	62.824037 
306.500000	62.623878 
307.000000	62.325575 
307.500000	61.957462 
308.000000	61.556765 
308.500000	61.168583 
309.000000	60.685363 
309.500000	60.051310 
310.000000	59.317303 
310.500000	58.630878 
311.000000	57.906219 
311.500000	57.098128 
312.000000	56.108613 
312.500000	55.014992 
313.000000	53.854462 
313.500000	52.785401 
314.000000	51.846704 
314.500000	50.959734 
315.000000	50.056015 
315.500000	49.153810 
316.000000	48.196242 
316.500000	47.273068 
317.000000	46.477522 
317.500000	45.799992 
318.000000	45.092946 
318.500000	44.372325 
319.000000	43.750363 
319.500000	43.148265 
320.000000	42.513765 
320.500000	41.846893 
321.000000	41.396265 
321.500000	41.052022 
322.000000	40.805719 
322.500000	40.484530 
323.000000	40.166553 
323.500000	39.851189 
324.000000	39.659333 
324.500000	39.554515 
325.000000	39.425984 
325.500000	39.278265 
326.000000	39.174340 
326.500000	39.197643 
327.000000	39.284780 
327.500000	39.352401 
328.000000	39.400984 
328.500000	39.520681 
329.000000	39.689174 
329.500000	39.883803 
330.000000	40.076265 
330.500000	40.326227 
331.000000	40.591628 
331.500000	40.855242 
332.000000	41.074704 
332.500000	41.299530 
333.000000	41.588007 
333.500000	41.929893 
334.000000	42.315121 
334.500000	42.634454 
335.000000	42.961371 
335.500000	43.282530 
336.000000	43.642734 
336.500000	44.031212 
337.000000	44.502030 
337.500000	44.896030 
338.000000	45.145931 
338.500000	45.372409 
339.000000	45.730212 
339.500000	46.161840 
340.000000	46.444893 
340.500000	46.634265 
341.000000	46.832757 
341.500000	47.109916 
342.000000	47.381916 
342.500000	47.691969 
343.000000	47.988257 
343.500000	48.247871 
344.000000	48.437954 
344.500000	48.644143 
345.000000	48.929431 
345.500000	49.225772 
346.000000	49.451053 
346.500000	49.622303 
347.000000	49.830590 
347.500000	50.213189 
348.000000	50.606568 
348.500000	50.961242 
349.000000	51.125560 
349.500000	51.326249 
350.000000	51.500803 
350.500000	51.720689 
351.000000	51.817863 
351.500000	51.899363 
352.000000	51.900386 
352.500000	51.934159 
353.000000	52.082280 
353.500000	52.355045 
354.000000	52.614257 
354.500000	52.667931 
355.000000	52.611848 
355.500000	52.516007 
356.000000	52.560083 
356.500000	52.619734 
357.000000	52.727007 
357.500000	52.784159 
358.000000	52.834143 
358.500000	52.790833 
359.000000	52.672318 
359.500000	52.519583 
360.000000	52.384348 
360.500000	52.337159 
361.000000	52.280681 
361.500000	52.208727 
362.000000	52.061590 
362.500000	51.901181 
363.000000	51.642719 
363.500000	51.256537 
364.000000	50.854757 
364.500000	50.603363 
365.000000	50.433734 
365.500000	50.141295 
366.000000	49.725712 
366.500000	49.361893 
367.000000	49.035196 
367.500000	48.653916 
368.000000	48.172613 
368.500000	47.625272 
369.000000	47.077363 
369.500000	46.552310 
370.000000	46.047098 
370.500000	45.566909 
371.000000	45.080537 
371.500000	44.503780 
372.000000	43.897030 
372.500000	43.306909 
373.000000	42.748553 
373.500000	42.106803 
374.000000	41.400863 
374.500000	40.727545 
375.000000	40.062893 
375.500000	39.231007 
376.000000	38.305992 
376.500000	37.514825 
377.000000	36.954628 
377.500000	36.532500 
378.000000	36.067409 
378.500000	35.454681 
379.000000	34.702446 
379.500000	33.996265 
380.000000	33.445439 
380.500000	32.909931 
381.000000	32.253704 
381.500000	31.579386 
382.000000	30.980924 
382.500000	30.438598 
383.000000	29.836181 
383.500000	29.258856 
384.000000	28.737446 
384.500000	28.301000 
385.000000	27.841393 
385.500000	27.356712 
386.000000	26.791318 
386.500000	26.167863 
387.000000	25.590818 
387.500000	25.085083 
388.000000	24.641181 
388.500000	24.199522 
389.000000	23.790143 
389.500000	23.425651 
390.000000	23.004113 
390.500000	22.493863 
391.000000	21.957818 
391.500000	21.591318 
392.000000	21.293234 
392.500000	20.950727 
393.000000	20.463454 
393.500000	20.006901 
394.000000	19.663409 
394.500000	19.394393 
395.000000	19.067454 
395.500000	18.684545 
396.000000	18.342424 
396.500000	18.096045 
397.000000	17.870287 
397.500000	17.635992 
398.000000	17.372674 
398.500000	17.158886 
399.000000	17.008007 
399.500000	17.009303 
400.000000	17.139000 

