PE FL                   SPECTRUM    ASCII       PEDS        1.60        
  -1
CDSRT#24.SP
02/03/22
01:27:58.00
02/03/22
01:30:34.00


540.000000
1









LS55
280.00
5.00
5.00
SCAN
1
20
100
100
0
100
0
1
0
1
7
ON
590 310 
1 0 0
#HDR
-1
-1
#GR
NM

0.00002384185791015625
0.0
300.000000
0.500000
481
8
115.917856
9.664856
#DATA
300.000000	30.728000  
300.500000	35.728272  
301.000000	40.952068  
301.500000	46.501886  
302.000000	52.288545  
302.500000	57.969962  
303.000000	63.852227  
303.500000	69.830492  
304.000000	75.779492  
304.500000	81.166704  
305.000000	86.248098  
305.500000	90.971295  
306.000000	95.387007  
306.500000	99.271719  
307.000000	102.921265 
307.500000	106.159946 
308.000000	108.822310 
308.500000	110.736113 
309.000000	112.209818 
309.500000	113.462234 
310.000000	114.555818 
310.500000	115.296681 
311.000000	115.702878 
311.500000	115.886515 
312.000000	115.917856 
312.500000	115.576621 
313.000000	114.974212 
313.500000	114.289462 
314.000000	113.750318 
314.500000	113.129871 
315.000000	112.387931 
315.500000	111.337924 
316.000000	110.248037 
316.500000	109.279136 
317.000000	108.347189 
317.500000	107.148295 
318.000000	105.614643 
318.500000	104.148598 
319.000000	102.970280 
319.500000	101.811537 
320.000000	100.371810 
320.500000	98.826015  
321.000000	97.423659  
321.500000	96.063636  
322.000000	94.682151  
322.500000	93.273265  
323.000000	91.939242  
323.500000	90.568204  
324.000000	89.079962  
324.500000	87.570257  
325.000000	86.173090  
325.500000	84.946143  
326.000000	83.678643  
326.500000	82.319265  
327.000000	80.844090  
327.500000	79.338030  
328.000000	77.823613  
328.500000	76.331719  
329.000000	74.827727  
329.500000	73.475719  
330.000000	72.264189  
330.500000	71.201666  
331.000000	70.072325  
331.500000	68.816303  
332.000000	67.318257  
332.500000	65.896075  
333.000000	64.625886  
333.500000	63.548606  
334.000000	62.459500  
334.500000	61.399962  
335.000000	60.387628  
335.500000	59.323803  
336.000000	58.196280  
336.500000	57.299022  
337.000000	56.715893  
337.500000	56.049681  
338.000000	55.098537  
338.500000	54.122560  
339.000000	53.329530  
339.500000	52.559007  
340.000000	51.683174  
340.500000	50.834969  
341.000000	50.242545  
341.500000	49.631901  
342.000000	48.904431  
342.500000	47.992484  
343.000000	47.075962  
343.500000	46.295795  
344.000000	45.745803  
344.500000	45.264909  
345.000000	44.637219  
345.500000	43.882037  
346.000000	43.097583  
346.500000	42.497136  
347.000000	41.876507  
347.500000	41.180750  
348.000000	40.440136  
348.500000	39.783212  
349.000000	39.383568  
349.500000	39.087015  
350.000000	38.731098  
350.500000	38.161272  
351.000000	37.638340  
351.500000	37.243969  
352.000000	36.971977  
352.500000	36.577613  
353.000000	36.263060  
353.500000	36.163553  
354.000000	36.284848  
354.500000	36.244409  
355.000000	35.852825  
355.500000	35.304454  
356.000000	35.036454  
356.500000	35.062734  
357.000000	35.138378  
357.500000	35.101068  
358.000000	34.975325  
358.500000	34.927712  
359.000000	34.916818  
359.500000	34.837719  
360.000000	34.662893  
360.500000	34.456053  
361.000000	34.346522  
361.500000	34.356287  
362.000000	34.318098  
362.500000	34.150583  
363.000000	34.007174  
363.500000	33.960348  
364.000000	33.876030  
364.500000	33.634651  
365.000000	33.348174  
365.500000	33.215901  
366.000000	33.168840  
366.500000	33.008045  
367.000000	32.706818  
367.500000	32.396704  
368.000000	32.146590  
368.500000	31.960674  
369.000000	31.805560  
369.500000	31.660068  
370.000000	31.500628  
370.500000	31.306007  
371.000000	31.162219  
371.500000	31.238515  
372.000000	31.439810  
372.500000	31.513257  
373.000000	31.326234  
373.500000	31.105568  
374.000000	31.046984  
374.500000	31.133075  
375.000000	31.309204  
375.500000	31.394636  
376.000000	31.420507  
376.500000	31.328545  
377.000000	31.301272  
377.500000	31.289537  
378.000000	31.365371  
378.500000	31.495810  
379.000000	31.646757  
379.500000	31.729250  
380.000000	31.726712  
380.500000	31.743030  
381.000000	31.720916  
381.500000	31.687022  
382.000000	31.712674  
382.500000	31.812121  
383.000000	31.977878  
383.500000	32.117878  
384.000000	32.169659  
384.500000	32.021848  
385.000000	31.916878  
385.500000	31.907856  
386.000000	32.038560  
386.500000	32.030916  
387.000000	31.980257  
387.500000	31.890969  
388.000000	31.848439  
388.500000	31.717310  
389.000000	31.685772  
389.500000	31.743265  
390.000000	31.796909  
390.500000	31.693098  
391.000000	31.526378  
391.500000	31.485765  
392.000000	31.529871  
392.500000	31.591674  
393.000000	31.683318  
393.500000	31.859696  
394.000000	31.899212  
394.500000	31.727409  
395.000000	31.467068  
395.500000	31.426946  
396.000000	31.647780  
396.500000	31.893227  
397.000000	31.908742  
397.500000	31.681462  
398.000000	31.476106  
398.500000	31.378227  
399.000000	31.427340  
399.500000	31.459083  
400.000000	31.516636  
400.500000	31.531931  
401.000000	31.534787  
401.500000	31.455575  
402.000000	31.396840  
402.500000	31.407287  
403.000000	31.587356  
403.500000	31.786340  
404.000000	31.881015  
404.500000	31.850219  
405.000000	31.902022  
405.500000	31.947803  
406.000000	31.918037  
406.500000	31.793022  
407.000000	31.747356  
407.500000	31.782227  
408.000000	31.841515  
408.500000	31.861409  
409.000000	31.816075  
409.500000	31.766674  
410.000000	31.840257  
410.500000	32.004909  
411.000000	32.105780  
411.500000	31.972356  
412.000000	31.851810  
412.500000	31.828878  
413.000000	31.915939  
413.500000	31.897454  
414.000000	31.879651  
414.500000	31.854318  
415.000000	31.848196  
415.500000	31.819121  
416.000000	31.843734  
416.500000	32.009545  
417.000000	32.109893  
417.500000	32.041757  
418.000000	31.863257  
418.500000	31.836068  
419.000000	31.956696  
419.500000	32.110560  
420.000000	32.217007  
420.500000	32.254090  
421.000000	32.179795  
421.500000	31.977598  
422.000000	31.926325  
422.500000	32.080386  
423.000000	32.192659  
423.500000	32.066242  
424.000000	31.874787  
424.500000	31.857712  
425.000000	31.901431  
425.500000	31.809643  
426.000000	31.633287  
426.500000	31.525143  
427.000000	31.563803  
427.500000	31.584484  
428.000000	31.608121  
428.500000	31.453886  
429.000000	31.360484  
429.500000	31.259159  
430.000000	31.310106  
430.500000	31.256265  
431.000000	31.211204  
431.500000	31.094507  
432.000000	31.112234  
432.500000	31.129886  
433.000000	31.102136  
433.500000	30.979136  
434.000000	30.851356  
434.500000	30.787560  
435.000000	30.718780  
435.500000	30.631969  
436.000000	30.511363  
436.500000	30.466287  
437.000000	30.374643  
437.500000	30.241515  
438.000000	30.021219  
438.500000	29.928893  
439.000000	29.912560  
439.500000	29.878871  
440.000000	29.719098  
440.500000	29.549787  
441.000000	29.462371  
441.500000	29.407666  
442.000000	29.264303  
442.500000	29.052712  
443.000000	28.933628  
443.500000	28.847689  
444.000000	28.693212  
444.500000	28.442507  
445.000000	28.270954  
445.500000	28.219007  
446.000000	28.211916  
446.500000	28.060878  
447.000000	27.894000  
447.500000	27.659803  
448.000000	27.461946  
448.500000	27.325333  
449.000000	27.343734  
449.500000	27.319484  
450.000000	27.162454  
450.500000	26.901628  
451.000000	26.665530  
451.500000	26.511121  
452.000000	26.363795  
452.500000	26.221409  
453.000000	26.060962  
453.500000	25.885363  
454.000000	25.701568  
454.500000	25.590310  
455.000000	25.487325  
455.500000	25.340007  
456.000000	25.181030  
456.500000	25.092537  
457.000000	25.002424  
457.500000	24.806643  
458.000000	24.527378  
458.500000	24.346174  
459.000000	24.241666  
459.500000	24.061712  
460.000000	23.825780  
460.500000	23.628068  
461.000000	23.498189  
461.500000	23.403250  
462.000000	23.326159  
462.500000	23.158825  
463.000000	22.929810  
463.500000	22.747189  
464.000000	22.788431  
464.500000	22.773075  
465.000000	22.501446  
465.500000	22.087719  
466.000000	21.860909  
466.500000	21.834553  
467.000000	21.845257  
467.500000	21.781590  
468.000000	21.636681  
468.500000	21.477030  
469.000000	21.271363  
469.500000	21.068045  
470.000000	20.885825  
470.500000	20.733628  
471.000000	20.614818  
471.500000	20.480689  
472.000000	20.331787  
472.500000	20.195189  
473.000000	20.069393  
473.500000	19.935909  
474.000000	19.748636  
474.500000	19.539469  
475.000000	19.375333  
475.500000	19.310000  
476.000000	19.285060  
476.500000	19.183250  
477.000000	19.035962  
477.500000	18.841750  
478.000000	18.637318  
478.500000	18.403348  
479.000000	18.265651  
479.500000	18.199545  
480.000000	18.122606  
480.500000	17.972469  
481.000000	17.838553  
481.500000	17.795030  
482.000000	17.783098  
482.500000	17.743212  
483.000000	17.689666  
483.500000	17.665143  
484.000000	17.594424  
484.500000	17.447257  
485.000000	17.263295  
485.500000	17.157704  
486.000000	17.051454  
486.500000	16.837560  
487.000000	16.555295  
487.500000	16.362106  
488.000000	16.307318  
488.500000	16.271954  
489.000000	16.183174  
489.500000	16.013113  
490.000000	15.889287  
490.500000	15.815386  
491.000000	15.773234  
491.500000	15.672795  
492.000000	15.510234  
492.500000	15.343393  
493.000000	15.165037  
493.500000	15.089931  
494.000000	15.100303  
494.500000	15.186340  
495.000000	15.077954  
495.500000	14.893234  
496.000000	14.677613  
496.500000	14.633954  
497.000000	14.615318  
497.500000	14.620424  
498.000000	14.525659  
498.500000	14.358166  
499.000000	14.158128  
499.500000	14.035825  
500.000000	14.045340  
500.500000	14.118083  
501.000000	14.169537  
501.500000	14.179333  
502.000000	14.166515  
502.500000	14.089227  
503.000000	13.945537  
503.500000	13.840416  
504.000000	13.857378  
504.500000	13.880166  
505.000000	13.780219  
505.500000	13.606969  
506.000000	13.542409  
506.500000	13.504325  
507.000000	13.462545  
507.500000	13.402371  
508.000000	13.382924  
508.500000	13.357181  
509.000000	13.294015  
509.500000	13.244742  
510.000000	13.185643  
510.500000	13.102159  
511.000000	12.961439  
511.500000	12.872537  
512.000000	12.724856  
512.500000	12.589893  
513.000000	12.537000  
513.500000	12.602659  
514.000000	12.644181  
514.500000	12.569568  
515.000000	12.424598  
515.500000	12.314446  
516.000000	12.223393  
516.500000	12.142696  
517.000000	12.071090  
517.500000	11.958219  
518.000000	11.835833  
518.500000	11.851409  
519.000000	11.952280  
519.500000	11.991878  
520.000000	11.808507  
520.500000	11.607015  
521.000000	11.515674  
521.500000	11.562719  
522.000000	11.557484  
522.500000	11.540045  
523.000000	11.452378  
523.500000	11.331227  
524.000000	11.153037  
524.500000	11.032250  
525.000000	10.999174  
525.500000	11.007181  
526.000000	11.009204  
526.500000	10.980772  
527.000000	10.904189  
527.500000	10.781878  
528.000000	10.682871  
528.500000	10.657189  
529.000000	10.647174  
529.500000	10.565825  
530.000000	10.430984  
530.500000	10.330166  
531.000000	10.312181  
531.500000	10.310674  
532.000000	10.277727  
532.500000	10.227628  
533.000000	10.183878  
533.500000	10.146803  
534.000000	10.102916  
534.500000	10.057787  
535.000000	9.973962   
535.500000	9.919363   
536.000000	9.864340   
536.500000	9.874522   
537.000000	9.871356   
537.500000	9.898090   
538.000000	9.849454   
538.500000	9.768250   
539.000000	9.664856   
539.500000	9.683515   
540.000000	9.798999   

