PE FL                   SPECTRUM    ASCII       PEDS        1.60        
  -1
01#122.SP
02/03/16
01:01:38.00
02/03/16
01:06:01.00


500.000000
1









LS55
520.00
5.00
5.00
SCAN
1
20
100
100
0
50
0
0
0
1
7
ON
580 300 
1 0 0
#HDR
-1
-1
#GR
NM

0.00002384185791015625
0.0
290.000000
0.500000
421
8
0.004507
-0.000303
#DATA
290.000000	0.000000  
290.500000	0.000000  
291.000000	0.000000  
291.500000	0.000000  
292.000000	0.000000  
292.500000	0.000000  
293.000000	0.000000  
293.500000	0.000000  
294.000000	0.000000  
294.500000	0.000000  
295.000000	0.000000  
295.500000	0.000000  
296.000000	0.000000  
296.500000	0.000000  
297.000000	0.000000  
297.500000	0.000000  
298.000000	0.000000  
298.500000	0.000000  
299.000000	0.000000  
299.500000	0.000000  
300.000000	0.000000  
300.500000	0.000000  
301.000000	0.000000  
301.500000	0.000000  
302.000000	0.000000  
302.500000	0.000000  
303.000000	0.000000  
303.500000	0.000000  
304.000000	0.000000  
304.500000	0.000000  
305.000000	0.000000  
305.500000	0.000000  
306.000000	0.000000  
306.500000	0.000000  
307.000000	0.000000  
307.500000	0.000000  
308.000000	0.000000  
308.500000	0.000000  
309.000000	0.000000  
309.500000	0.000000  
310.000000	0.000000  
310.500000	0.000000  
311.000000	0.000000  
311.500000	0.000000  
312.000000	0.000000  
312.500000	0.000000  
313.000000	0.000000  
313.500000	0.000000  
314.000000	0.000000  
314.500000	0.000000  
315.000000	0.000000  
315.500000	0.000000  
316.000000	0.000000  
316.500000	0.000000  
317.000000	0.000000  
317.500000	0.000000  
318.000000	0.000000  
318.500000	0.000000  
319.000000	0.000000  
319.500000	0.000000  
320.000000	0.000000  
320.500000	-0.000060 
321.000000	-0.000053 
321.500000	0.000409  
322.000000	0.000984  
322.500000	0.001151  
323.000000	0.000613  
323.500000	0.000075  
324.000000	-0.000121 
324.500000	0.000000  
325.000000	0.000000  
325.500000	0.000000  
326.000000	0.000000  
326.500000	0.000000  
327.000000	0.000000  
327.500000	0.000000  
328.000000	0.000000  
328.500000	0.000000  
329.000000	0.000000  
329.500000	0.000000  
330.000000	0.000000  
330.500000	0.000000  
331.000000	0.000000  
331.500000	0.000000  
332.000000	0.000000  
332.500000	0.000000  
333.000000	0.000000  
333.500000	0.000000  
334.000000	0.000000  
334.500000	0.000000  
335.000000	0.000000  
335.500000	0.000000  
336.000000	0.000000  
336.500000	0.000000  
337.000000	0.000000  
337.500000	0.000000  
338.000000	-0.000060 
338.500000	-0.000053 
339.000000	0.000409  
339.500000	0.000984  
340.000000	0.001151  
340.500000	0.000613  
341.000000	0.000075  
341.500000	-0.000121 
342.000000	0.000000  
342.500000	0.000000  
343.000000	0.000000  
343.500000	0.000000  
344.000000	0.000000  
344.500000	-0.000060 
345.000000	-0.000053 
345.500000	0.000409  
346.000000	0.000984  
346.500000	0.001151  
347.000000	0.000613  
347.500000	0.000075  
348.000000	-0.000121 
348.500000	0.000000  
349.000000	0.000000  
349.500000	0.000000  
350.000000	-0.000060 
350.500000	-0.000234 
351.000000	0.000189  
351.500000	0.002280  
352.000000	0.004378  
352.500000	0.004507  
353.000000	0.002128  
353.500000	0.000121  
354.000000	-0.000015 
354.500000	0.000984  
355.000000	0.001151  
355.500000	0.000553  
356.000000	0.000022  
356.500000	0.000287  
357.000000	0.000924  
357.500000	0.001098  
358.000000	0.001022  
358.500000	0.001060  
359.000000	0.001030  
359.500000	0.000613  
360.000000	0.000015  
360.500000	-0.000174 
361.000000	0.000409  
361.500000	0.000984  
362.000000	0.001090  
362.500000	0.000560  
363.000000	0.000484  
363.500000	0.000863  
364.000000	0.001151  
364.500000	0.000553  
365.000000	0.000022  
365.500000	0.000287  
366.000000	0.000863  
366.500000	0.001045  
367.000000	0.001371  
367.500000	0.001931  
368.000000	0.002416  
368.500000	0.002515  
369.000000	0.003106  
369.500000	0.003492  
370.000000	0.002992  
370.500000	0.001181  
371.000000	0.000030  
371.500000	-0.000303 
372.000000	-0.000053 
372.500000	0.000409  
373.000000	0.000984  
373.500000	0.001151  
374.000000	0.000613  
374.500000	-0.000045 
375.000000	-0.000227 
375.500000	0.000818  
376.000000	0.001969  
376.500000	0.002303  
377.000000	0.001166  
377.500000	0.000037  
378.000000	0.000053  
378.500000	0.001280  
379.000000	0.002492  
379.500000	0.003159  
380.000000	0.002765  
380.500000	0.001606  
381.000000	0.000863  
381.500000	0.001295  
382.000000	0.002363  
382.500000	0.002757  
383.000000	0.002181  
383.500000	0.001280  
384.000000	0.000666  
384.500000	0.000219  
385.000000	0.000007  
385.500000	-0.000121 
386.000000	-0.000053 
386.500000	0.000348  
387.000000	0.000931  
387.500000	0.001196  
388.000000	0.002007  
388.500000	0.002803  
389.000000	0.002954  
389.500000	0.002257  
390.000000	0.001818  
390.500000	0.001666  
391.000000	0.001159  
391.500000	0.000151  
392.000000	-0.000295 
392.500000	0.000348  
393.000000	0.001053  
393.500000	0.001424  
394.000000	0.001053  
394.500000	0.000348  
395.000000	-0.000053 
395.500000	-0.000060 
396.000000	0.000000  
396.500000	0.000000  
397.000000	0.000000  
397.500000	0.000000  
398.000000	0.000000  
398.500000	0.000000  
399.000000	0.000000  
399.500000	0.000000  
400.000000	0.000000  
400.500000	0.000000  
401.000000	0.000000  
401.500000	0.000000  
402.000000	0.000000  
402.500000	0.000000  
403.000000	-0.000060 
403.500000	0.000007  
404.000000	0.000340  
404.500000	0.000712  
405.000000	0.000712  
405.500000	0.000340  
406.000000	0.000007  
406.500000	-0.000060 
407.000000	0.000000  
407.500000	0.000000  
408.000000	0.000000  
408.500000	0.000000  
409.000000	0.000000  
409.500000	0.000000  
410.000000	0.000000  
410.500000	0.000000  
411.000000	0.000000  
411.500000	0.000000  
412.000000	0.000000  
412.500000	0.000000  
413.000000	0.000000  
413.500000	0.000000  
414.000000	0.000000  
414.500000	0.000000  
415.000000	0.000000  
415.500000	0.000000  
416.000000	0.000000  
416.500000	0.000000  
417.000000	0.000000  
417.500000	0.000000  
418.000000	0.000000  
418.500000	0.000000  
419.000000	0.000000  
419.500000	0.000000  
420.000000	0.000000  
420.500000	0.000000  
421.000000	0.000000  
421.500000	0.000000  
422.000000	0.000000  
422.500000	0.000000  
423.000000	0.000000  
423.500000	0.000000  
424.000000	0.000000  
424.500000	0.000000  
425.000000	0.000000  
425.500000	0.000000  
426.000000	0.000000  
426.500000	0.000000  
427.000000	0.000000  
427.500000	0.000000  
428.000000	0.000000  
428.500000	0.000000  
429.000000	0.000000  
429.500000	0.000000  
430.000000	0.000000  
430.500000	0.000000  
431.000000	0.000000  
431.500000	0.000000  
432.000000	0.000000  
432.500000	0.000000  
433.000000	0.000000  
433.500000	0.000000  
434.000000	0.000000  
434.500000	0.000000  
435.000000	0.000000  
435.500000	0.000000  
436.000000	0.000000  
436.500000	0.000000  
437.000000	0.000000  
437.500000	0.000000  
438.000000	0.000000  
438.500000	0.000000  
439.000000	0.000000  
439.500000	0.000000  
440.000000	0.000000  
440.500000	0.000000  
441.000000	0.000000  
441.500000	0.000000  
442.000000	0.000000  
442.500000	0.000000  
443.000000	0.000000  
443.500000	0.000000  
444.000000	0.000000  
444.500000	0.000000  
445.000000	0.000000  
445.500000	0.000000  
446.000000	0.000000  
446.500000	0.000000  
447.000000	0.000000  
447.500000	0.000000  
448.000000	0.000000  
448.500000	0.000000  
449.000000	0.000000  
449.500000	0.000000  
450.000000	0.000000  
450.500000	0.000000  
451.000000	0.000000  
451.500000	0.000000  
452.000000	0.000000  
452.500000	0.000000  
453.000000	0.000000  
453.500000	0.000000  
454.000000	0.000000  
454.500000	0.000000  
455.000000	0.000000  
455.500000	0.000000  
456.000000	0.000000  
456.500000	0.000000  
457.000000	0.000000  
457.500000	0.000000  
458.000000	0.000000  
458.500000	0.000000  
459.000000	0.000000  
459.500000	0.000000  
460.000000	0.000000  
460.500000	0.000000  
461.000000	0.000000  
461.500000	0.000000  
462.000000	0.000000  
462.500000	0.000000  
463.000000	0.000000  
463.500000	0.000000  
464.000000	0.000000  
464.500000	0.000000  
465.000000	0.000000  
465.500000	0.000000  
466.000000	0.000000  
466.500000	0.000000  
467.000000	0.000000  
467.500000	0.000000  
468.000000	0.000000  
468.500000	0.000000  
469.000000	0.000000  
469.500000	0.000000  
470.000000	0.000000  
470.500000	0.000000  
471.000000	0.000000  
471.500000	0.000000  
472.000000	0.000000  
472.500000	0.000000  
473.000000	0.000000  
473.500000	0.000000  
474.000000	0.000000  
474.500000	0.000000  
475.000000	0.000000  
475.500000	0.000000  
476.000000	0.000000  
476.500000	0.000000  
477.000000	0.000000  
477.500000	0.000000  
478.000000	0.000000  
478.500000	0.000000  
479.000000	0.000000  
479.500000	0.000000  
480.000000	0.000000  
480.500000	0.000000  
481.000000	0.000000  
481.500000	0.000000  
482.000000	0.000000  
482.500000	0.000000  
483.000000	0.000000  
483.500000	0.000000  
484.000000	0.000000  
484.500000	0.000000  
485.000000	0.000000  
485.500000	0.000000  
486.000000	0.000000  
486.500000	0.000000  
487.000000	0.000000  
487.500000	0.000000  
488.000000	0.000000  
488.500000	0.000000  
489.000000	0.000000  
489.500000	0.000000  
490.000000	0.000000  
490.500000	0.000000  
491.000000	0.000000  
491.500000	0.000000  
492.000000	0.000000  
492.500000	0.000000  
493.000000	0.000000  
493.500000	0.000000  
494.000000	0.000000  
494.500000	0.000000  
495.000000	0.000000  
495.500000	0.000000  
496.000000	0.000000  
496.500000	0.000000  
497.000000	0.000000  
497.500000	0.000000  
498.000000	0.000000  
498.500000	0.000000  
499.000000	0.000000  
499.500000	0.000000  
500.000000	0.000000  

