PE FL                   SPECTRUM    ASCII       PEDS        1.60        
  -1
01#123.SP
02/03/16
01:09:02.00
02/03/16
01:13:38.00


480.000000
1









LS55
500.00
2.50
2.50
SCAN
1
20
100
100
0
50
0
1
0
1
7
ON
520 500 
1 0 0
#HDR
-1
-1
#GR
NM

0.00002384185791015625
0.0
260.000000
0.500000
441
8
0.032866
-0.021600
#DATA
260.000000	0.000000  
260.500000	0.000000  
261.000000	0.000000  
261.500000	0.000000  
262.000000	0.000000  
262.500000	0.000000  
263.000000	0.000000  
263.500000	0.000000  
264.000000	0.000000  
264.500000	0.000000  
265.000000	0.000000  
265.500000	0.000000  
266.000000	0.000000  
266.500000	0.000000  
267.000000	0.000000  
267.500000	0.000000  
268.000000	0.000000  
268.500000	0.000000  
269.000000	0.000000  
269.500000	0.000000  
270.000000	0.000000  
270.500000	0.000000  
271.000000	0.000000  
271.500000	0.000000  
272.000000	0.000000  
272.500000	0.000000  
273.000000	0.000000  
273.500000	0.000000  
274.000000	0.000000  
274.500000	0.000000  
275.000000	0.000000  
275.500000	0.000000  
276.000000	0.000000  
276.500000	0.000000  
277.000000	0.000000  
277.500000	0.000000  
278.000000	0.000000  
278.500000	0.000000  
279.000000	0.000000  
279.500000	0.000000  
280.000000	0.000000  
280.500000	0.000000  
281.000000	0.000000  
281.500000	0.000000  
282.000000	0.000000  
282.500000	0.000000  
283.000000	0.000000  
283.500000	0.000000  
284.000000	0.000000  
284.500000	0.000000  
285.000000	0.000000  
285.500000	0.000000  
286.000000	0.000000  
286.500000	0.000000  
287.000000	0.000000  
287.500000	0.000000  
288.000000	0.000000  
288.500000	0.000000  
289.000000	0.000000  
289.500000	0.000000  
290.000000	0.000000  
290.500000	0.000000  
291.000000	0.000599  
291.500000	-0.000266 
292.000000	-0.013933 
292.500000	-0.021600 
293.000000	-0.007933 
293.500000	0.002133  
294.000000	0.000000  
294.500000	0.000000  
295.000000	0.000000  
295.500000	0.000000  
296.000000	0.000000  
296.500000	0.000000  
297.000000	0.000000  
297.500000	0.000000  
298.000000	0.000000  
298.500000	0.000000  
299.000000	0.000000  
299.500000	0.000000  
300.000000	0.000000  
300.500000	0.000000  
301.000000	0.000000  
301.500000	0.000000  
302.000000	0.000000  
302.500000	0.000000  
303.000000	0.000000  
303.500000	0.000000  
304.000000	0.000000  
304.500000	0.000000  
305.000000	0.000000  
305.500000	0.000000  
306.000000	0.000000  
306.500000	0.000000  
307.000000	0.000000  
307.500000	0.000000  
308.000000	0.000000  
308.500000	0.000000  
309.000000	0.000000  
309.500000	0.000000  
310.000000	0.000000  
310.500000	0.000000  
311.000000	0.000000  
311.500000	0.000000  
312.000000	0.000000  
312.500000	0.000000  
313.000000	0.000000  
313.500000	0.000000  
314.000000	0.000000  
314.500000	0.000000  
315.000000	0.000000  
315.500000	0.000000  
316.000000	0.000000  
316.500000	0.000000  
317.000000	0.000000  
317.500000	0.000000  
318.000000	0.000000  
318.500000	0.000000  
319.000000	0.000000  
319.500000	0.000000  
320.000000	0.000000  
320.500000	0.000000  
321.000000	0.000000  
321.500000	0.000000  
322.000000	0.000000  
322.500000	0.000000  
323.000000	0.000000  
323.500000	0.000000  
324.000000	0.000000  
324.500000	0.000000  
325.000000	0.000000  
325.500000	0.000000  
326.000000	0.000000  
326.500000	0.000000  
327.000000	0.000000  
327.500000	0.000000  
328.000000	0.000000  
328.500000	0.000000  
329.000000	0.000000  
329.500000	0.000000  
330.000000	0.000000  
330.500000	0.000000  
331.000000	0.000000  
331.500000	0.000000  
332.000000	0.000000  
332.500000	-0.000866 
333.000000	0.000199  
333.500000	0.020866  
334.000000	0.032866  
334.500000	0.012200  
335.000000	-0.003266 
335.500000	0.000000  
336.000000	0.000000  
336.500000	0.000000  
337.000000	0.000000  
337.500000	0.000000  
338.000000	0.000000  
338.500000	0.000000  
339.000000	0.000000  
339.500000	0.000000  
340.000000	0.000000  
340.500000	0.000000  
341.000000	0.000000  
341.500000	0.000000  
342.000000	0.000000  
342.500000	0.000000  
343.000000	0.000000  
343.500000	0.000000  
344.000000	0.000000  
344.500000	0.000000  
345.000000	0.000000  
345.500000	0.000000  
346.000000	0.000000  
346.500000	0.000000  
347.000000	0.000000  
347.500000	0.000000  
348.000000	0.000000  
348.500000	0.000000  
349.000000	0.000000  
349.500000	0.000000  
350.000000	0.000000  
350.500000	0.000000  
351.000000	0.000000  
351.500000	0.000000  
352.000000	0.000000  
352.500000	0.000000  
353.000000	0.000000  
353.500000	0.000000  
354.000000	0.000000  
354.500000	0.000000  
355.000000	0.000000  
355.500000	0.000000  
356.000000	0.000000  
356.500000	0.000000  
357.000000	0.000000  
357.500000	0.000000  
358.000000	0.000000  
358.500000	0.000000  
359.000000	0.000000  
359.500000	0.000000  
360.000000	0.000000  
360.500000	0.000000  
361.000000	0.000000  
361.500000	0.000000  
362.000000	0.000000  
362.500000	0.000000  
363.000000	0.000000  
363.500000	0.000000  
364.000000	0.000000  
364.500000	0.000000  
365.000000	0.000000  
365.500000	0.000000  
366.000000	0.000000  
366.500000	0.000000  
367.000000	0.000000  
367.500000	0.000000  
368.000000	0.000000  
368.500000	0.000000  
369.000000	0.000000  
369.500000	0.000000  
370.000000	0.000000  
370.500000	0.000000  
371.000000	0.000000  
371.500000	0.000000  
372.000000	0.000000  
372.500000	0.000000  
373.000000	0.000000  
373.500000	0.000000  
374.000000	0.000000  
374.500000	0.000000  
375.000000	0.000000  
375.500000	0.000000  
376.000000	0.000000  
376.500000	0.000000  
377.000000	0.000000  
377.500000	0.000000  
378.000000	0.000000  
378.500000	0.000000  
379.000000	0.000000  
379.500000	0.000000  
380.000000	0.000000  
380.500000	0.000000  
381.000000	0.000000  
381.500000	0.000000  
382.000000	0.000000  
382.500000	0.000000  
383.000000	0.000000  
383.500000	0.000000  
384.000000	0.000000  
384.500000	0.000000  
385.000000	0.000000  
385.500000	0.000000  
386.000000	0.000000  
386.500000	0.000000  
387.000000	0.000000  
387.500000	0.000000  
388.000000	0.000000  
388.500000	0.000000  
389.000000	0.000000  
389.500000	0.000000  
390.000000	0.000000  
390.500000	0.000000  
391.000000	0.000000  
391.500000	0.000000  
392.000000	0.000000  
392.500000	0.000000  
393.000000	0.000000  
393.500000	0.000000  
394.000000	0.000000  
394.500000	0.000000  
395.000000	0.000000  
395.500000	0.000000  
396.000000	0.000000  
396.500000	0.000000  
397.000000	0.000000  
397.500000	0.000000  
398.000000	0.000000  
398.500000	0.000000  
399.000000	0.000000  
399.500000	0.000000  
400.000000	0.000000  
400.500000	0.000000  
401.000000	0.000000  
401.500000	0.000000  
402.000000	0.000000  
402.500000	0.000000  
403.000000	0.000000  
403.500000	0.000000  
404.000000	0.000000  
404.500000	0.000000  
405.000000	0.000000  
405.500000	0.000000  
406.000000	0.000000  
406.500000	0.000000  
407.000000	0.000000  
407.500000	0.000000  
408.000000	0.000000  
408.500000	0.000000  
409.000000	0.000000  
409.500000	0.000000  
410.000000	0.000000  
410.500000	0.000000  
411.000000	0.000000  
411.500000	0.000000  
412.000000	0.000000  
412.500000	0.000000  
413.000000	-0.000266 
413.500000	0.000000  
414.000000	0.006666  
414.500000	0.010666  
415.000000	0.004000  
415.500000	-0.001066 
416.000000	0.000000  
416.500000	0.000000  
417.000000	0.000000  
417.500000	0.000000  
418.000000	0.000000  
418.500000	0.000000  
419.000000	0.000000  
419.500000	0.000000  
420.000000	0.000000  
420.500000	0.000000  
421.000000	0.000000  
421.500000	0.000000  
422.000000	0.000000  
422.500000	0.000000  
423.000000	0.000000  
423.500000	0.000000  
424.000000	0.000000  
424.500000	0.000000  
425.000000	0.000000  
425.500000	0.000000  
426.000000	0.000000  
426.500000	0.000000  
427.000000	0.000000  
427.500000	0.000000  
428.000000	0.000000  
428.500000	0.000000  
429.000000	0.000000  
429.500000	0.000000  
430.000000	0.000000  
430.500000	0.000000  
431.000000	0.000000  
431.500000	0.000000  
432.000000	0.000000  
432.500000	0.000000  
433.000000	0.000000  
433.500000	0.000000  
434.000000	0.000000  
434.500000	0.000000  
435.000000	0.000000  
435.500000	0.000000  
436.000000	0.000000  
436.500000	-0.000266 
437.000000	0.000000  
437.500000	0.006666  
438.000000	0.010666  
438.500000	0.004000  
439.000000	-0.001066 
439.500000	0.000000  
440.000000	0.000000  
440.500000	0.000000  
441.000000	0.000000  
441.500000	0.000000  
442.000000	0.000000  
442.500000	0.000000  
443.000000	-0.000599 
443.500000	0.000266  
444.000000	0.013933  
444.500000	0.021600  
445.000000	0.007933  
445.500000	-0.002133 
446.000000	0.000000  
446.500000	0.000000  
447.000000	0.000000  
447.500000	0.000000  
448.000000	0.000000  
448.500000	0.000000  
449.000000	0.000000  
449.500000	0.000000  
450.000000	-0.000266 
450.500000	0.000000  
451.000000	0.006666  
451.500000	0.010666  
452.000000	0.004000  
452.500000	-0.001066 
453.000000	0.000000  
453.500000	0.000000  
454.000000	0.000000  
454.500000	0.000000  
455.000000	0.000000  
455.500000	0.000000  
456.000000	0.000000  
456.500000	0.000000  
457.000000	0.000000  
457.500000	0.000000  
458.000000	0.000000  
458.500000	0.000000  
459.000000	0.000000  
459.500000	0.000000  
460.000000	0.000000  
460.500000	0.000000  
461.000000	0.000000  
461.500000	0.000000  
462.000000	0.000000  
462.500000	0.000000  
463.000000	0.000000  
463.500000	0.000000  
464.000000	0.000000  
464.500000	0.000000  
465.000000	0.000000  
465.500000	0.000000  
466.000000	0.000000  
466.500000	0.000000  
467.000000	0.000000  
467.500000	0.000000  
468.000000	0.000000  
468.500000	0.000000  
469.000000	0.000000  
469.500000	0.000000  
470.000000	0.000000  
470.500000	0.000000  
471.000000	0.000000  
471.500000	0.000000  
472.000000	0.000000  
472.500000	0.000000  
473.000000	0.000000  
473.500000	0.000000  
474.000000	0.000000  
474.500000	0.000000  
475.000000	0.000000  
475.500000	0.000000  
476.000000	0.000000  
476.500000	0.000000  
477.000000	0.000000  
477.500000	0.000000  
478.000000	0.000000  
478.500000	0.000000  
479.000000	0.000000  
479.500000	0.000000  
480.000000	0.000000  

