PE FL                   SPECTRUM    ASCII       PEDS        1.60        
  -1
01#168.SP
02/03/17
04:46:15.00
02/03/17
04:51:33.00


590.000000
1









LS55
307.00
2.50
2.50
SCAN
1
20
100
100
0
50
0
1
0
1
7
ON
430 400 
1 0 0
#HDR
-1
-1
#GR
NM

0.00002384185791015625
0.0
330.000000
0.500000
521
8
1.234000
-0.006000
#DATA
330.000000	-0.006000 
330.500000	0.015000  
331.000000	0.000000  
331.500000	0.004000  
332.000000	0.015000  
332.500000	0.008000  
333.000000	0.030000  
333.500000	0.012000  
334.000000	0.045000  
334.500000	0.000000  
335.000000	0.000000  
335.500000	0.000000  
336.000000	0.004000  
336.500000	0.019000  
337.000000	0.015000  
337.500000	0.000000  
338.000000	0.004000  
338.500000	0.015000  
339.000000	0.000000  
339.500000	0.000000  
340.000000	0.000000  
340.500000	0.008000  
341.000000	0.042000  
341.500000	0.053000  
342.000000	0.038000  
342.500000	0.038000  
343.000000	0.030000  
343.500000	0.004000  
344.000000	0.019000  
344.500000	0.015000  
345.000000	0.000000  
345.500000	0.008000  
346.000000	0.030000  
346.500000	0.004000  
347.000000	0.023000  
347.500000	0.034000  
348.000000	0.015000  
348.500000	0.008000  
349.000000	0.030000  
349.500000	0.000000  
350.000000	0.000000  
350.500000	0.000000  
351.000000	0.008000  
351.500000	0.030000  
352.000000	0.000000  
352.500000	0.004000  
353.000000	0.019000  
353.500000	0.015000  
354.000000	0.004000  
354.500000	0.019000  
355.000000	0.015000  
355.500000	0.000000  
356.000000	0.004000  
356.500000	0.019000  
357.000000	0.015000  
357.500000	0.008000  
358.000000	0.038000  
358.500000	0.034000  
359.000000	0.019000  
359.500000	0.023000  
360.000000	0.034000  
360.500000	0.019000  
361.000000	0.015000  
361.500000	0.012000  
362.000000	0.049000  
362.500000	0.031000  
363.000000	0.065000  
363.500000	0.019000  
364.000000	0.023000  
364.500000	0.038000  
365.000000	0.038000  
365.500000	0.038000  
366.000000	0.038000  
366.500000	0.034000  
367.000000	0.031000  
367.500000	0.061000  
368.000000	0.004000  
368.500000	0.054000  
369.000000	0.158000  
369.500000	0.031000  
370.000000	0.069000  
370.500000	0.050000  
371.000000	0.100000  
371.500000	0.108000  
372.000000	0.081000  
372.500000	0.116000  
373.000000	0.165000  
373.500000	0.061000  
374.000000	0.077000  
374.500000	0.104000  
375.000000	0.191000  
375.500000	0.116000  
376.000000	0.120000  
376.500000	0.126000  
377.000000	0.112000  
377.500000	0.157000  
378.000000	0.112000  
378.500000	0.181000  
379.000000	0.192000  
379.500000	0.139000  
380.000000	0.220000  
380.500000	0.170000  
381.000000	0.171000  
381.500000	0.219000  
382.000000	0.186000  
382.500000	0.235000  
383.000000	0.255000  
383.500000	0.247000  
384.000000	0.181000  
384.500000	0.297000  
385.000000	0.312000  
385.500000	0.235000  
386.000000	0.177000  
386.500000	0.228000  
387.000000	0.366000  
387.500000	0.354000  
388.000000	0.324000  
388.500000	0.389000  
389.000000	0.397000  
389.500000	0.366000  
390.000000	0.343000  
390.500000	0.298000  
391.000000	0.482000  
391.500000	0.470000  
392.000000	0.433000  
392.500000	0.491000  
393.000000	0.595000  
393.500000	0.574000  
394.000000	0.589000  
394.500000	0.678000  
395.000000	0.545000  
395.500000	0.564999  
396.000000	0.548000  
396.500000	0.452000  
397.000000	0.567999  
397.500000	0.593000  
398.000000	0.591000  
398.500000	0.621000  
399.000000	0.619000  
399.500000	0.807000  
400.000000	0.673000  
400.500000	0.792000  
401.000000	0.739000  
401.500000	0.788000  
402.000000	0.657000  
402.500000	0.795000  
403.000000	0.750000  
403.500000	0.853000  
404.000000	0.980000  
404.500000	0.846000  
405.000000	0.938999  
405.500000	0.778000  
406.000000	0.853000  
406.500000	0.804000  
407.000000	0.844000  
407.500000	0.820000  
408.000000	0.842000  
408.500000	0.831000  
409.000000	0.911000  
409.500000	0.919000  
410.000000	0.883000  
410.500000	0.861000  
411.000000	0.822000  
411.500000	0.853000  
412.000000	1.073000  
412.500000	0.946000  
413.000000	0.874000  
413.500000	0.920000  
414.000000	0.983000  
414.500000	0.814999  
415.000000	1.055000  
415.500000	1.024000  
416.000000	1.025000  
416.500000	1.052000  
417.000000	1.158000  
417.500000	1.163000  
418.000000	1.141000  
418.500000	1.034000  
419.000000	1.127000  
419.500000	1.012000  
420.000000	1.040000  
420.500000	1.037000  
421.000000	1.125000  
421.500000	1.234000  
422.000000	0.983000  
422.500000	0.946000  
423.000000	1.101000  
423.500000	1.085000  
424.000000	1.027000  
424.500000	1.066000  
425.000000	1.145000  
425.500000	1.102000  
426.000000	1.077000  
426.500000	1.016000  
427.000000	1.159000  
427.500000	1.220000  
428.000000	1.129000  
428.500000	1.040000  
429.000000	1.078000  
429.500000	1.017000  
430.000000	1.157000  
430.500000	1.186000  
431.000000	1.009000  
431.500000	1.123000  
432.000000	1.175000  
432.500000	1.015000  
433.000000	1.066000  
433.500000	1.047000  
434.000000	0.928000  
434.500000	1.023000  
435.000000	1.064000  
435.500000	0.969000  
436.000000	1.106000  
436.500000	1.009000  
437.000000	1.073000  
437.500000	1.002000  
438.000000	1.096000  
438.500000	0.961000  
439.000000	1.076000  
439.500000	0.981000  
440.000000	0.981000  
440.500000	1.020000  
441.000000	0.930000  
441.500000	0.929000  
442.000000	0.850000  
442.500000	0.859000  
443.000000	1.186000  
443.500000	1.096000  
444.000000	0.935000  
444.500000	0.971000  
445.000000	0.970000  
445.500000	0.919000  
446.000000	0.944000  
446.500000	0.869000  
447.000000	0.933000  
447.500000	0.908000  
448.000000	0.948000  
448.500000	0.793000  
449.000000	0.832000  
449.500000	0.993000  
450.000000	0.996000  
450.500000	0.885000  
451.000000	0.853000  
451.500000	0.780000  
452.000000	0.725000  
452.500000	0.731000  
453.000000	0.861000  
453.500000	0.798000  
454.000000	0.684000  
454.500000	0.708000  
455.000000	0.667000  
455.500000	0.571000  
456.000000	0.618000  
456.500000	0.657000  
457.000000	0.783000  
457.500000	0.698000  
458.000000	0.740000  
458.500000	0.541000  
459.000000	0.544000  
459.500000	0.556000  
460.000000	0.532000  
460.500000	0.560000  
461.000000	0.772000  
461.500000	0.664000  
462.000000	0.563999  
462.500000	0.633000  
463.000000	0.544000  
463.500000	0.567999  
464.000000	0.611000  
464.500000	0.641000  
465.000000	0.566999  
465.500000	0.510000  
466.000000	0.482000  
466.500000	0.546000  
467.000000	0.493000  
467.500000	0.459000  
468.000000	0.467000  
468.500000	0.537000  
469.000000	0.445000  
469.500000	0.433000  
470.000000	0.409000  
470.500000	0.501000  
471.000000	0.486000  
471.500000	0.434000  
472.000000	0.455000  
472.500000	0.433000  
473.000000	0.444000  
473.500000	0.359000  
474.000000	0.329000  
474.500000	0.356000  
475.000000	0.432000  
475.500000	0.313000  
476.000000	0.319000  
476.500000	0.301000  
477.000000	0.355000  
477.500000	0.374000  
478.000000	0.356000  
478.500000	0.420000  
479.000000	0.285000  
479.500000	0.397000  
480.000000	0.293000  
480.500000	0.332000  
481.000000	0.425000  
481.500000	0.382000  
482.000000	0.208000  
482.500000	0.216000  
483.000000	0.300000  
483.500000	0.286000  
484.000000	0.335000  
484.500000	0.340000  
485.000000	0.497000  
485.500000	0.293000  
486.000000	0.189000  
486.500000	0.344000  
487.000000	0.379000  
487.500000	0.275000  
488.000000	0.290000  
488.500000	0.278000  
489.000000	0.236000  
489.500000	0.220000  
490.000000	0.135000  
490.500000	0.262000  
491.000000	0.193000  
491.500000	0.344000  
492.000000	0.308000  
492.500000	0.228000  
493.000000	0.240000  
493.500000	0.328000  
494.000000	0.247000  
494.500000	0.227000  
495.000000	0.212000  
495.500000	0.204000  
496.000000	0.170000  
496.500000	0.174000  
497.000000	0.239000  
497.500000	0.181000  
498.000000	0.139000  
498.500000	0.154000  
499.000000	0.158000  
499.500000	0.161000  
500.000000	0.146000  
500.500000	0.250000  
501.000000	0.177000  
501.500000	0.205000  
502.000000	0.239000  
502.500000	0.197000  
503.000000	0.204000  
503.500000	0.181000  
504.000000	0.224000  
504.500000	0.243000  
505.000000	0.135000  
505.500000	0.151000  
506.000000	0.196000  
506.500000	0.147000  
507.000000	0.200000  
507.500000	0.243000  
508.000000	0.262000  
508.500000	0.154000  
509.000000	0.174000  
509.500000	0.262000  
510.000000	0.301000  
510.500000	0.250000  
511.000000	0.166000  
511.500000	0.127000  
512.000000	0.120000  
512.500000	0.216000  
513.000000	0.204000  
513.500000	0.092000  
514.000000	0.104000  
514.500000	0.200000  
515.000000	0.150000  
515.500000	0.127000  
516.000000	0.116000  
516.500000	0.169000  
517.000000	0.093000  
517.500000	0.158000  
518.000000	0.193000  
518.500000	0.231000  
519.000000	0.077000  
519.500000	0.089000  
520.000000	0.126000  
520.500000	0.087999  
521.000000	0.058000  
521.500000	0.085000  
522.000000	0.188000  
522.500000	0.166000  
523.000000	0.115000  
523.500000	0.054000  
524.000000	0.131000  
524.500000	0.158000  
525.000000	0.043000  
525.500000	0.127000  
526.000000	0.092000  
526.500000	0.089000  
527.000000	0.135000  
527.500000	0.119000  
528.000000	0.061000  
528.500000	0.069000  
529.000000	0.046000  
529.500000	0.085000  
530.000000	0.099000  
530.500000	0.042000  
531.000000	0.065000  
531.500000	0.116000  
532.000000	0.165000  
532.500000	0.053000  
533.000000	0.054000  
533.500000	0.119000  
534.000000	0.131000  
534.500000	0.115000  
535.000000	0.099000  
535.500000	0.062000  
536.000000	0.138000  
536.500000	0.073000  
537.000000	0.073000  
537.500000	0.135000  
538.000000	0.127000  
538.500000	0.096000  
539.000000	0.096000  
539.500000	0.084000  
540.000000	0.050000  
540.500000	0.084000  
541.000000	0.046000  
541.500000	0.081000  
542.000000	0.084000  
542.500000	0.050000  
543.000000	0.087999  
543.500000	0.061000  
544.000000	0.089000  
544.500000	0.118000  
545.000000	0.053000  
545.500000	0.038000  
546.000000	0.046000  
546.500000	0.077000  
547.000000	0.073000  
547.500000	0.049000  
548.000000	0.027000  
548.500000	0.057000  
549.000000	0.065000  
549.500000	0.080000  
550.000000	0.031000  
550.500000	0.081000  
551.000000	0.092000  
551.500000	0.073000  
552.000000	0.070000  
552.500000	0.095000  
553.000000	0.027000  
553.500000	0.066000  
554.000000	0.080000  
554.500000	0.031000  
555.000000	0.069000  
555.500000	0.038000  
556.000000	0.050000  
556.500000	0.084000  
557.000000	0.042000  
557.500000	0.058000  
558.000000	0.062000  
558.500000	0.081000  
559.000000	0.084000  
559.500000	0.042000  
560.000000	0.065000  
560.500000	0.087999  
561.000000	0.053000  
561.500000	0.046000  
562.000000	0.065000  
562.500000	0.027000  
563.000000	0.065000  
563.500000	0.080000  
564.000000	0.015000  
564.500000	0.012000  
565.000000	0.053000  
565.500000	0.038000  
566.000000	0.058000  
566.500000	0.111000  
567.000000	0.023000  
567.500000	0.038000  
568.000000	0.050000  
568.500000	0.080000  
569.000000	0.027000  
569.500000	0.049000  
570.000000	0.023000  
570.500000	0.038000  
571.000000	0.038000  
571.500000	0.034000  
572.000000	0.023000  
572.500000	0.042000  
573.000000	0.054000  
573.500000	0.034000  
574.000000	0.027000  
574.500000	0.045000  
575.000000	0.012000  
575.500000	0.049000  
576.000000	0.015000  
576.500000	0.016000  
577.000000	0.081000  
577.500000	0.084000  
578.000000	0.038000  
578.500000	0.030000  
579.000000	0.008000  
579.500000	0.034000  
580.000000	0.023000  
580.500000	0.062000  
581.000000	0.123000  
581.500000	0.012000  
582.000000	0.058000  
582.500000	0.062000  
583.000000	0.089000  
583.500000	0.115000  
584.000000	0.034000  
584.500000	0.023000  
585.000000	0.038000  
585.500000	0.034000  
586.000000	0.027000  
586.500000	0.046000  
587.000000	0.008000  
587.500000	0.030000  
588.000000	0.008000  
588.500000	0.030000  
589.000000	0.008000  
589.500000	0.054000  
590.000000	0.134000  

