PE FL                   SPECTRUM    ASCII       PEDS        1.60        
  -1
01#165.SP
02/03/17
04:31:23.00
02/03/17
04:34:13.00


580.000000
1









LS55
600.00
5.00
5.00
SCAN
1
20
100
100
0
100
0
0
0
1
7
ON
500 480 
1 0 0
#HDR
-1
-1
#GR
NM

0.00002384185791015625
0.0
320.000000
0.500000
521
8
1.223143
0.152060
#DATA
320.000000	0.639000 
320.500000	0.674113 
321.000000	0.699833 
321.500000	0.711340 
322.000000	0.702704 
322.500000	0.687628 
323.000000	0.678454 
323.500000	0.687181 
324.000000	0.703128 
324.500000	0.707492 
325.000000	0.695689 
325.500000	0.688507 
326.000000	0.697219 
326.500000	0.706969 
327.000000	0.710689 
327.500000	0.709848 
328.000000	0.713924 
328.500000	0.713431 
329.000000	0.722681 
329.500000	0.741409 
330.000000	0.760977 
330.500000	0.760090 
331.000000	0.747719 
331.500000	0.741416 
332.000000	0.748689 
332.500000	0.756810 
333.000000	0.763893 
333.500000	0.770848 
334.000000	0.776166 
334.500000	0.779143 
335.000000	0.778090 
335.500000	0.774340 
336.000000	0.772128 
336.500000	0.762765 
337.000000	0.754780 
337.500000	0.754015 
338.000000	0.766333 
338.500000	0.770590 
339.000000	0.765666 
339.500000	0.758590 
340.000000	0.776492 
340.500000	0.800151 
341.000000	0.818856 
341.500000	0.819901 
342.000000	0.817340 
342.500000	0.818499 
343.000000	0.837234 
343.500000	0.852803 
344.000000	0.854250 
344.500000	0.840606 
345.000000	0.838757 
345.500000	0.849916 
346.000000	0.859560 
346.500000	0.857856 
347.000000	0.853401 
347.500000	0.856204 
348.000000	0.869340 
348.500000	0.893083 
349.000000	0.900143 
349.500000	0.891840 
350.000000	0.893098 
350.500000	0.914568 
351.000000	0.931174 
351.500000	0.921287 
352.000000	0.914477 
352.500000	0.927984 
353.000000	0.964734 
353.500000	0.998712 
354.000000	1.022916 
354.500000	1.023128 
355.000000	1.012431 
355.500000	0.998575 
356.000000	0.996295 
356.500000	1.011356 
357.000000	1.038007 
357.500000	1.056931 
358.000000	1.041674 
358.500000	1.017227 
359.000000	1.009106 
359.500000	1.034772 
360.000000	1.061545 
360.500000	1.086757 
361.000000	1.101772 
361.500000	1.116946 
362.000000	1.124765 
362.500000	1.121643 
363.000000	1.112037 
363.500000	1.104053 
364.000000	1.117560 
364.500000	1.143628 
365.000000	1.170901 
365.500000	1.188545 
366.000000	1.204340 
366.500000	1.213037 
367.000000	1.205863 
367.500000	1.195287 
368.000000	1.194863 
368.500000	1.214477 
369.000000	1.223143 
369.500000	1.222416 
370.000000	1.208280 
370.500000	1.201446 
371.000000	1.188522 
371.500000	1.177916 
372.000000	1.171901 
372.500000	1.180265 
373.000000	1.189204 
373.500000	1.187992 
374.000000	1.180780 
374.500000	1.175969 
375.000000	1.177568 
375.500000	1.183431 
376.000000	1.182886 
376.500000	1.167113 
377.000000	1.145878 
377.500000	1.143939 
378.000000	1.154840 
378.500000	1.156643 
379.000000	1.154530 
379.500000	1.163848 
380.000000	1.177106 
380.500000	1.162522 
381.000000	1.136492 
381.500000	1.112727 
382.000000	1.096863 
382.500000	1.077909 
383.000000	1.078560 
383.500000	1.095113 
384.000000	1.117719 
384.500000	1.128772 
385.000000	1.124643 
385.500000	1.104992 
386.000000	1.082636 
386.500000	1.080931 
387.000000	1.084704 
387.500000	1.078174 
388.000000	1.064636 
388.500000	1.069621 
389.000000	1.079393 
389.500000	1.082893 
390.000000	1.079318 
390.500000	1.075727 
391.000000	1.068863 
391.500000	1.057803 
392.000000	1.056446 
392.500000	1.049484 
393.000000	1.037742 
393.500000	1.029098 
394.000000	1.046886 
394.500000	1.067780 
395.000000	1.072272 
395.500000	1.055962 
396.000000	1.041090 
396.500000	1.033651 
397.000000	1.024818 
397.500000	1.021712 
398.000000	1.021363 
398.500000	1.030227 
399.000000	1.038068 
399.500000	1.045931 
400.000000	1.041750 
400.500000	1.030181 
401.000000	1.015075 
401.500000	1.009780 
402.000000	1.009393 
402.500000	1.004621 
403.000000	0.987363 
403.500000	0.970575 
404.000000	0.965151 
404.500000	0.970446 
405.000000	0.976143 
405.500000	0.974727 
406.000000	0.967704 
406.500000	0.954818 
407.000000	0.944643 
407.500000	0.938689 
408.000000	0.933007 
408.500000	0.914265 
409.000000	0.892825 
409.500000	0.881787 
410.000000	0.875954 
410.500000	0.867916 
411.000000	0.863825 
411.500000	0.876477 
412.000000	0.886825 
412.500000	0.882257 
413.000000	0.865833 
413.500000	0.858098 
414.000000	0.853143 
414.500000	0.842613 
415.000000	0.827310 
415.500000	0.823303 
416.000000	0.824681 
416.500000	0.820818 
417.000000	0.804878 
417.500000	0.786333 
418.000000	0.776037 
418.500000	0.774113 
419.000000	0.773174 
419.500000	0.764272 
420.000000	0.749265 
420.500000	0.727037 
421.000000	0.709924 
421.500000	0.698136 
422.000000	0.693909 
422.500000	0.687060 
423.000000	0.682962 
423.500000	0.684037 
424.000000	0.692560 
424.500000	0.694651 
425.000000	0.682628 
425.500000	0.663590 
426.000000	0.652439 
426.500000	0.642689 
427.000000	0.628000 
427.500000	0.603090 
428.000000	0.586159 
428.500000	0.576439 
429.000000	0.566416 
429.500000	0.542053 
430.000000	0.523174 
430.500000	0.519333 
431.000000	0.534189 
431.500000	0.541977 
432.000000	0.534333 
432.500000	0.522371 
433.000000	0.505439 
433.500000	0.486719 
434.000000	0.466537 
434.500000	0.458545 
435.000000	0.455356 
435.500000	0.453250 
436.000000	0.445325 
436.500000	0.437621 
437.000000	0.427833 
437.500000	0.416848 
438.000000	0.410439 
438.500000	0.401386 
439.000000	0.387000 
439.500000	0.375446 
440.000000	0.369386 
440.500000	0.367439 
441.000000	0.363393 
441.500000	0.361371 
442.000000	0.358939 
442.500000	0.354772 
443.000000	0.346878 
443.500000	0.337098 
444.000000	0.327272 
444.500000	0.317143 
445.000000	0.308287 
445.500000	0.304128 
446.000000	0.306583 
446.500000	0.309666 
447.000000	0.305856 
447.500000	0.299522 
448.000000	0.296969 
448.500000	0.295689 
449.000000	0.289416 
449.500000	0.283181 
450.000000	0.281287 
450.500000	0.278371 
451.000000	0.274939 
451.500000	0.273871 
452.000000	0.273204 
452.500000	0.267977 
453.000000	0.260969 
453.500000	0.258515 
454.000000	0.259431 
454.500000	0.253893 
455.000000	0.236750 
455.500000	0.218992 
456.000000	0.209984 
456.500000	0.211734 
457.000000	0.210886 
457.500000	0.211340 
458.000000	0.212287 
458.500000	0.217939 
459.000000	0.216666 
459.500000	0.217159 
460.000000	0.220265 
460.500000	0.226295 
461.000000	0.223015 
461.500000	0.215143 
462.000000	0.209818 
462.500000	0.213303 
463.000000	0.216757 
463.500000	0.214712 
464.000000	0.213598 
464.500000	0.219750 
465.000000	0.219666 
465.500000	0.209659 
466.000000	0.197454 
466.500000	0.201007 
467.000000	0.211863 
467.500000	0.218553 
468.000000	0.214242 
468.500000	0.205674 
469.000000	0.194674 
469.500000	0.195530 
470.000000	0.205712 
470.500000	0.220371 
471.000000	0.222515 
471.500000	0.218000 
472.000000	0.211401 
472.500000	0.209939 
473.000000	0.202575 
473.500000	0.190992 
474.000000	0.178507 
474.500000	0.177204 
475.000000	0.186196 
475.500000	0.199621 
476.000000	0.209772 
476.500000	0.212590 
477.000000	0.207333 
477.500000	0.197515 
478.000000	0.191166 
478.500000	0.189962 
479.000000	0.191083 
479.500000	0.190484 
480.000000	0.192772 
480.500000	0.196871 
481.000000	0.201151 
481.500000	0.198181 
482.000000	0.189742 
482.500000	0.183409 
483.000000	0.188984 
483.500000	0.199030 
484.000000	0.201977 
484.500000	0.195037 
485.000000	0.194060 
485.500000	0.199515 
486.000000	0.200378 
486.500000	0.189795 
487.000000	0.181757 
487.500000	0.185303 
488.000000	0.196151 
488.500000	0.202992 
489.000000	0.203969 
489.500000	0.201909 
490.000000	0.198545 
490.500000	0.193439 
491.000000	0.188537 
491.500000	0.186924 
492.000000	0.190651 
492.500000	0.194871 
493.000000	0.198500 
493.500000	0.200621 
494.000000	0.201704 
494.500000	0.202181 
495.000000	0.207151 
495.500000	0.215757 
496.000000	0.223651 
496.500000	0.226901 
497.000000	0.229871 
497.500000	0.230946 
498.000000	0.233007 
498.500000	0.231568 
499.000000	0.234219 
499.500000	0.231598 
500.000000	0.236681 
500.500000	0.239765 
501.000000	0.242696 
501.500000	0.231606 
502.000000	0.214689 
502.500000	0.195537 
503.000000	0.186287 
503.500000	0.182909 
504.000000	0.178098 
504.500000	0.174454 
505.000000	0.171606 
505.500000	0.172068 
506.000000	0.173250 
506.500000	0.177424 
507.000000	0.181431 
507.500000	0.177689 
508.000000	0.165795 
508.500000	0.155363 
509.000000	0.152060 
509.500000	0.155393 
510.000000	0.169962 
510.500000	0.182484 
511.000000	0.184083 
511.500000	0.170795 
512.000000	0.163477 
512.500000	0.160598 
513.000000	0.161272 
513.500000	0.155250 
514.000000	0.155045 
514.500000	0.159833 
515.000000	0.172613 
515.500000	0.180939 
516.000000	0.177106 
516.500000	0.166962 
517.000000	0.160068 
517.500000	0.169378 
518.000000	0.177553 
518.500000	0.174113 
519.000000	0.156386 
519.500000	0.152598 
520.000000	0.161227 
520.500000	0.175022 
521.000000	0.173848 
521.500000	0.166469 
522.000000	0.155537 
522.500000	0.152174 
523.000000	0.154030 
523.500000	0.170257 
524.000000	0.194265 
524.500000	0.213643 
525.000000	0.206575 
525.500000	0.183234 
526.000000	0.160462 
526.500000	0.158545 
527.000000	0.167765 
527.500000	0.180386 
528.000000	0.187818 
528.500000	0.191916 
529.000000	0.187977 
529.500000	0.184378 
530.000000	0.182439 
530.500000	0.184840 
531.000000	0.191189 
531.500000	0.198696 
532.000000	0.205606 
532.500000	0.211196 
533.000000	0.208401 
533.500000	0.201378 
534.000000	0.195204 
534.500000	0.201022 
535.000000	0.209810 
535.500000	0.214242 
536.000000	0.209303 
536.500000	0.211757 
537.000000	0.222704 
537.500000	0.234621 
538.000000	0.238878 
538.500000	0.239863 
539.000000	0.245098 
539.500000	0.248325 
540.000000	0.241757 
540.500000	0.230295 
541.000000	0.227575 
541.500000	0.238659 
542.000000	0.259765 
542.500000	0.274560 
543.000000	0.276765 
543.500000	0.268689 
544.000000	0.263363 
544.500000	0.263992 
545.000000	0.267227 
545.500000	0.265750 
546.000000	0.263969 
546.500000	0.269325 
547.000000	0.280181 
547.500000	0.284272 
548.000000	0.281560 
548.500000	0.282696 
549.000000	0.307196 
549.500000	0.333121 
550.000000	0.342803 
550.500000	0.326477 
551.000000	0.312272 
551.500000	0.313712 
552.000000	0.331765 
552.500000	0.345007 
553.000000	0.356204 
553.500000	0.365212 
554.000000	0.369386 
554.500000	0.369469 
555.000000	0.361477 
555.500000	0.359939 
556.000000	0.368863 
556.500000	0.392037 
557.000000	0.407348 
557.500000	0.419977 
558.000000	0.417818 
558.500000	0.415613 
559.000000	0.397348 
559.500000	0.383871 
560.000000	0.396863 
560.500000	0.434113 
561.000000	0.449924 
561.500000	0.435628 
562.000000	0.408462 
562.500000	0.401484 
563.000000	0.403045 
563.500000	0.405242 
564.000000	0.405500 
564.500000	0.405287 
565.000000	0.410575 
565.500000	0.420689 
566.000000	0.445727 
566.500000	0.464484 
567.000000	0.487727 
567.500000	0.499636 
568.000000	0.517939 
568.500000	0.527727 
569.000000	0.537500 
569.500000	0.540946 
570.000000	0.540689 
570.500000	0.544954 
571.000000	0.552409 
571.500000	0.564916 
572.000000	0.588954 
572.500000	0.619765 
573.000000	0.645030 
573.500000	0.646590 
574.000000	0.643780 
574.500000	0.651378 
575.000000	0.685901 
575.500000	0.714159 
576.000000	0.721674 
576.500000	0.701409 
577.000000	0.690333 
577.500000	0.704909 
578.000000	0.727356 
578.500000	0.747075 
579.000000	0.749848 
579.500000	0.714924 
580.000000	0.640999 

