PE FL                   SPECTRUM    ASCII       PEDS        1.60        
  -1
01#169.SP
02/03/17
04:52:26.00
02/03/17
04:59:11.00


720.000000
1









LS55
370.00
2.50
2.50
SCAN
1
20
100
100
0
50
0
1
0
1
7
ON
590 307 
1 0 0
#HDR
-1
-1
#GR
NM

0.00002384185791015625
0.0
390.000000
0.500000
661
8
1.273000
0.000000
#DATA
390.000000	0.119000 
390.500000	0.198000 
391.000000	0.224000 
391.500000	0.187000 
392.000000	0.262000 
392.500000	0.293000 
393.000000	0.302000 
393.500000	0.278000 
394.000000	0.227000 
394.500000	0.201000 
395.000000	0.255000 
395.500000	0.259000 
396.000000	0.272000 
396.500000	0.276000 
397.000000	0.294000 
397.500000	0.293000 
398.000000	0.259000 
398.500000	0.336000 
399.000000	0.299000 
399.500000	0.239000 
400.000000	0.406000 
400.500000	0.494000 
401.000000	0.340000 
401.500000	0.296000 
402.000000	0.387000 
402.500000	0.364000 
403.000000	0.323000 
403.500000	0.330000 
404.000000	0.351000 
404.500000	0.312000 
405.000000	0.272000 
405.500000	0.307000 
406.000000	0.425000 
406.500000	0.371000 
407.000000	0.430000 
407.500000	0.481000 
408.000000	0.590000 
408.500000	0.409000 
409.000000	0.375000 
409.500000	0.511000 
410.000000	0.515000 
410.500000	0.515000 
411.000000	0.474000 
411.500000	0.565999 
412.000000	0.721000 
412.500000	0.678000 
413.000000	0.518000 
413.500000	0.711000 
414.000000	0.580000 
414.500000	0.672000 
415.000000	0.770000 
415.500000	0.756000 
416.000000	0.659000 
416.500000	0.695000 
417.000000	0.709000 
417.500000	0.813999 
418.000000	0.767000 
418.500000	0.671000 
419.000000	0.806000 
419.500000	0.694000 
420.000000	0.681000 
420.500000	0.723000 
421.000000	0.878000 
421.500000	0.866000 
422.000000	0.910000 
422.500000	0.876000 
423.000000	0.893000 
423.500000	0.870000 
424.000000	0.886000 
424.500000	0.744000 
425.000000	0.964000 
425.500000	0.904000 
426.000000	1.041000 
426.500000	1.030000 
427.000000	0.958000 
427.500000	0.849000 
428.000000	0.917000 
428.500000	0.985000 
429.000000	1.012000 
429.500000	0.903000 
430.000000	0.928000 
430.500000	0.996000 
431.000000	0.969000 
431.500000	1.268000 
432.000000	1.134000 
432.500000	0.995000 
433.000000	0.831000 
433.500000	0.913000 
434.000000	1.029000 
434.500000	1.081000 
435.000000	1.146000 
435.500000	1.023000 
436.000000	1.054000 
436.500000	1.149000 
437.000000	1.084000 
437.500000	1.234000 
438.000000	1.115000 
438.500000	1.101000 
439.000000	1.159000 
439.500000	0.993000 
440.000000	1.154000 
440.500000	1.155000 
441.000000	1.020000 
441.500000	1.063000 
442.000000	1.019000 
442.500000	1.016000 
443.000000	1.057000 
443.500000	1.090000 
444.000000	1.166000 
444.500000	1.031000 
445.000000	1.166000 
445.500000	1.039000 
446.000000	0.992000 
446.500000	1.085000 
447.000000	1.126000 
447.500000	1.111000 
448.000000	1.038000 
448.500000	0.959000 
449.000000	0.924000 
449.500000	1.037000 
450.000000	1.101000 
450.500000	0.877000 
451.000000	0.938999 
451.500000	1.095000 
452.000000	1.134000 
452.500000	0.978000 
453.000000	1.027000 
453.500000	1.074000 
454.000000	1.017000 
454.500000	1.273000 
455.000000	1.030000 
455.500000	0.992000 
456.000000	1.019000 
456.500000	1.061000 
457.000000	1.013000 
457.500000	1.009000 
458.000000	0.886000 
458.500000	0.879000 
459.000000	0.901000 
459.500000	1.041000 
460.000000	0.848000 
460.500000	0.845000 
461.000000	0.904000 
461.500000	0.971000 
462.000000	0.954000 
462.500000	0.875000 
463.000000	0.839000 
463.500000	0.869000 
464.000000	0.944000 
464.500000	0.962000 
465.000000	0.904000 
465.500000	0.843000 
466.000000	0.905000 
466.500000	1.001000 
467.000000	0.872000 
467.500000	0.932000 
468.000000	0.822000 
468.500000	0.763000 
469.000000	0.778000 
469.500000	0.859000 
470.000000	0.749000 
470.500000	0.757000 
471.000000	0.789000 
471.500000	0.790000 
472.000000	0.750000 
472.500000	0.761000 
473.000000	0.833000 
473.500000	0.923000 
474.000000	0.805000 
474.500000	0.828000 
475.000000	0.869000 
475.500000	0.865000 
476.000000	0.828000 
476.500000	0.733000 
477.000000	0.747000 
477.500000	0.825000 
478.000000	0.893000 
478.500000	0.804000 
479.000000	0.880000 
479.500000	0.817999 
480.000000	0.730000 
480.500000	0.876000 
481.000000	0.706000 
481.500000	0.730000 
482.000000	0.726000 
482.500000	0.750000 
483.000000	0.703000 
483.500000	0.773000 
484.000000	0.741000 
484.500000	0.760000 
485.000000	0.747000 
485.500000	0.823000 
486.000000	0.883000 
486.500000	0.809000 
487.000000	0.798000 
487.500000	0.669000 
488.000000	0.761000 
488.500000	0.801000 
489.000000	0.814999 
489.500000	0.832000 
490.000000	0.654000 
490.500000	0.562000 
491.000000	0.645000 
491.500000	0.712000 
492.000000	0.758000 
492.500000	0.748000 
493.000000	0.809000 
493.500000	0.804000 
494.000000	0.716000 
494.500000	0.821000 
495.000000	0.681000 
495.500000	0.637000 
496.000000	0.709000 
496.500000	0.613000 
497.000000	0.630000 
497.500000	0.710000 
498.000000	0.771000 
498.500000	0.824000 
499.000000	0.727000 
499.500000	0.749000 
500.000000	0.677000 
500.500000	0.671000 
501.000000	0.687999 
501.500000	0.640000 
502.000000	0.633000 
502.500000	0.729000 
503.000000	0.754000 
503.500000	0.627000 
504.000000	0.654000 
504.500000	0.783000 
505.000000	0.622000 
505.500000	0.528000 
506.000000	0.527000 
506.500000	0.513000 
507.000000	0.511000 
507.500000	0.701000 
508.000000	0.630000 
508.500000	0.531000 
509.000000	0.444000 
509.500000	0.604000 
510.000000	0.690999 
510.500000	0.675000 
511.000000	0.699000 
511.500000	0.624000 
512.000000	0.555000 
512.500000	0.432000 
513.000000	0.586000 
513.500000	0.550000 
514.000000	0.576000 
514.500000	0.602000 
515.000000	0.522000 
515.500000	0.592000 
516.000000	0.481000 
516.500000	0.596000 
517.000000	0.512000 
517.500000	0.678000 
518.000000	0.511000 
518.500000	0.443000 
519.000000	0.447000 
519.500000	0.478000 
520.000000	0.560000 
520.500000	0.613000 
521.000000	0.582000 
521.500000	0.464000 
522.000000	0.470000 
522.500000	0.460000 
523.000000	0.532000 
523.500000	0.565999 
524.000000	0.596000 
524.500000	0.396000 
525.000000	0.422000 
525.500000	0.459000 
526.000000	0.398000 
526.500000	0.408000 
527.000000	0.371000 
527.500000	0.480000 
528.000000	0.436000 
528.500000	0.481000 
529.000000	0.494000 
529.500000	0.473000 
530.000000	0.416000 
530.500000	0.476000 
531.000000	0.368000 
531.500000	0.471000 
532.000000	0.447000 
532.500000	0.439000 
533.000000	0.375000 
533.500000	0.443000 
534.000000	0.439000 
534.500000	0.420000 
535.000000	0.399000 
535.500000	0.437000 
536.000000	0.453000 
536.500000	0.371000 
537.000000	0.430000 
537.500000	0.464000 
538.000000	0.517000 
538.500000	0.409000 
539.000000	0.409000 
539.500000	0.426000 
540.000000	0.446000 
540.500000	0.283000 
541.000000	0.409000 
541.500000	0.460000 
542.000000	0.403000 
542.500000	0.439000 
543.000000	0.447000 
543.500000	0.479000 
544.000000	0.293000 
544.500000	0.330000 
545.000000	0.439000 
545.500000	0.480000 
546.000000	0.415000 
546.500000	0.364000 
547.000000	0.358000 
547.500000	0.470000 
548.000000	0.389000 
548.500000	0.419000 
549.000000	0.330000 
549.500000	0.350000 
550.000000	0.334000 
550.500000	0.382000 
551.000000	0.398000 
551.500000	0.358000 
552.000000	0.358000 
552.500000	0.379000 
553.000000	0.460000 
553.500000	0.422000 
554.000000	0.290000 
554.500000	0.382000 
555.000000	0.436000 
555.500000	0.286000 
556.000000	0.354000 
556.500000	0.368000 
557.000000	0.225000 
557.500000	0.317000 
558.000000	0.347000 
558.500000	0.314000 
559.000000	0.312000 
559.500000	0.211000 
560.000000	0.238000 
560.500000	0.262000 
561.000000	0.361000 
561.500000	0.346000 
562.000000	0.252000 
562.500000	0.293000 
563.000000	0.231000 
563.500000	0.225000 
564.000000	0.292000 
564.500000	0.231000 
565.000000	0.242000 
565.500000	0.357000 
566.000000	0.228000 
566.500000	0.248000 
567.000000	0.232000 
567.500000	0.276000 
568.000000	0.300000 
568.500000	0.340000 
569.000000	0.326000 
569.500000	0.268000 
570.000000	0.279000 
570.500000	0.371000 
571.000000	0.346000 
571.500000	0.278000 
572.000000	0.208000 
572.500000	0.343000 
573.000000	0.285000 
573.500000	0.286000 
574.000000	0.312000 
574.500000	0.197000 
575.000000	0.198000 
575.500000	0.285000 
576.000000	0.208000 
576.500000	0.210000 
577.000000	0.177000 
577.500000	0.228000 
578.000000	0.300000 
578.500000	0.208000 
579.000000	0.228000 
579.500000	0.255000 
580.000000	0.251000 
580.500000	0.259000 
581.000000	0.336000 
581.500000	0.327000 
582.000000	0.306000 
582.500000	0.177000 
583.000000	0.218000 
583.500000	0.255000 
584.000000	0.187000 
584.500000	0.187000 
585.000000	0.204000 
585.500000	0.265000 
586.000000	0.224000 
586.500000	0.174000 
587.000000	0.204000 
587.500000	0.251000 
588.000000	0.194000 
588.500000	0.268000 
589.000000	0.194000 
589.500000	0.207000 
590.000000	0.160000 
590.500000	0.204000 
591.000000	0.265000 
591.500000	0.234000 
592.000000	0.210000 
592.500000	0.163000 
593.000000	0.143000 
593.500000	0.177000 
594.000000	0.200000 
594.500000	0.170000 
595.000000	0.123000 
595.500000	0.183000 
596.000000	0.119000 
596.500000	0.180000 
597.000000	0.153000 
597.500000	0.139000 
598.000000	0.089000 
598.500000	0.109000 
599.000000	0.153000 
599.500000	0.204000 
600.000000	0.140000 
600.500000	0.149000 
601.000000	0.136000 
601.500000	0.136000 
602.000000	0.136000 
602.500000	0.140000 
603.000000	0.174000 
603.500000	0.234000 
604.000000	0.142000 
604.500000	0.113000 
605.000000	0.139000 
605.500000	0.102000 
606.000000	0.153000 
606.500000	0.096000 
607.000000	0.129000 
607.500000	0.116000 
608.000000	0.174000 
608.500000	0.170000 
609.000000	0.102000 
609.500000	0.126000 
610.000000	0.207000 
610.500000	0.157000 
611.000000	0.174000 
611.500000	0.183000 
612.000000	0.153000 
612.500000	0.096000 
613.000000	0.115000 
613.500000	0.065000 
614.000000	0.180000 
614.500000	0.157000 
615.000000	0.149000 
615.500000	0.082000 
616.000000	0.132000 
616.500000	0.112000 
617.000000	0.096000 
617.500000	0.112000 
618.000000	0.041000 
618.500000	0.125000 
619.000000	0.099000 
619.500000	0.149000 
620.000000	0.143000 
620.500000	0.149000 
621.000000	0.089000 
621.500000	0.163000 
622.000000	0.125000 
622.500000	0.074000 
623.000000	0.058000 
623.500000	0.142000 
624.000000	0.091000 
624.500000	0.058000 
625.000000	0.078000 
625.500000	0.065000 
626.000000	0.108000 
626.500000	0.079000 
627.000000	0.108000 
627.500000	0.064000 
628.000000	0.068000 
628.500000	0.115000 
629.000000	0.048000 
629.500000	0.116000 
630.000000	0.146000 
630.500000	0.058000 
631.000000	0.074000 
631.500000	0.048000 
632.000000	0.098000 
632.500000	0.070999 
633.000000	0.021000 
633.500000	0.041000 
634.000000	0.064000 
634.500000	0.051000 
635.000000	0.044000 
635.500000	0.017000 
636.000000	0.017000 
636.500000	0.031000 
637.000000	0.085000 
637.500000	0.085000 
638.000000	0.074000 
638.500000	0.055000 
639.000000	0.112000 
639.500000	0.021000 
640.000000	0.041000 
640.500000	0.061000 
641.000000	0.045000 
641.500000	0.078000 
642.000000	0.040000 
642.500000	0.000000 
643.000000	0.011000 
643.500000	0.055000 
644.000000	0.064000 
644.500000	0.047000 
645.000000	0.034000 
645.500000	0.030000 
646.000000	0.021000 
646.500000	0.030000 
647.000000	0.013000 
647.500000	0.011000 
648.000000	0.040000 
648.500000	0.004000 
649.000000	0.028000 
649.500000	0.075000 
650.000000	0.081000 
650.500000	0.004000 
651.000000	0.013000 
651.500000	0.007000 
652.000000	0.030000 
652.500000	0.013000 
653.000000	0.000000 
653.500000	0.004000 
654.000000	0.028000 
654.500000	0.054000 
655.000000	0.004000 
655.500000	0.017000 
656.000000	0.021000 
656.500000	0.034000 
657.000000	0.034000 
657.500000	0.030000 
658.000000	0.021000 
658.500000	0.030000 
659.000000	0.017000 
659.500000	0.021000 
660.000000	0.030000 
660.500000	0.013000 
661.000000	0.007000 
661.500000	0.027000 
662.000000	0.004000 
662.500000	0.017000 
663.000000	0.028000 
663.500000	0.061000 
664.000000	0.030000 
664.500000	0.024000 
665.000000	0.040000 
665.500000	0.000000 
666.000000	0.000000 
666.500000	0.004000 
667.000000	0.017000 
667.500000	0.013000 
668.000000	0.000000 
668.500000	0.004000 
669.000000	0.021000 
669.500000	0.034000 
670.000000	0.034000 
670.500000	0.027000 
671.000000	0.004000 
671.500000	0.021000 
672.000000	0.030000 
672.500000	0.013000 
673.000000	0.000000 
673.500000	0.004000 
674.000000	0.017000 
674.500000	0.021000 
675.000000	0.030000 
675.500000	0.013000 
676.000000	0.004000 
676.500000	0.013000 
677.000000	0.004000 
677.500000	0.013000 
678.000000	0.000000 
678.500000	0.004000 
679.000000	0.013000 
679.500000	0.000000 
680.000000	0.000000 
680.500000	0.000000 
681.000000	0.000000 
681.500000	0.004000 
682.000000	0.013000 
682.500000	0.000000 
683.000000	0.000000 
683.500000	0.000000 
684.000000	0.000000 
684.500000	0.004000 
685.000000	0.017000 
685.500000	0.013000 
686.000000	0.007000 
686.500000	0.027000 
687.000000	0.000000 
687.500000	0.000000 
688.000000	0.000000 
688.500000	0.000000 
689.000000	0.000000 
689.500000	0.000000 
690.000000	0.000000 
690.500000	0.000000 
691.000000	0.000000 
691.500000	0.004000 
692.000000	0.013000 
692.500000	0.007000 
693.000000	0.034000 
693.500000	0.027000 
694.000000	0.000000 
694.500000	0.004000 
695.000000	0.013000 
695.500000	0.000000 
696.000000	0.000000 
696.500000	0.004000 
697.000000	0.013000 
697.500000	0.007000 
698.000000	0.027000 
698.500000	0.004000 
699.000000	0.013000 
699.500000	0.000000 
700.000000	0.004000 
700.500000	0.013000 
701.000000	0.000000 
701.500000	0.004000 
702.000000	0.017000 
702.500000	0.013000 
703.000000	0.000000 
703.500000	0.000000 
704.000000	0.000000 
704.500000	0.000000 
705.000000	0.004000 
705.500000	0.013000 
706.000000	0.000000 
706.500000	0.004000 
707.000000	0.021000 
707.500000	0.027000 
708.000000	0.000000 
708.500000	0.004000 
709.000000	0.013000 
709.500000	0.004000 
710.000000	0.017000 
710.500000	0.013000 
711.000000	0.000000 
711.500000	0.014000 
712.000000	0.054000 
712.500000	0.004000 
713.000000	0.017000 
713.500000	0.017000 
714.000000	0.021000 
714.500000	0.034000 
715.000000	0.030000 
715.500000	0.013000 
716.000000	0.000000 
716.500000	0.000000 
717.000000	0.004000 
717.500000	0.013000 
718.000000	0.004000 
718.500000	0.021000 
719.000000	0.027000 
719.500000	0.000000 
720.000000	0.000000 

