PE FL                   SPECTRUM    ASCII       PEDS        1.60        
  -1
01#170.SP
02/03/17
05:00:09.00
02/03/17
05:05:11.00


640.000000
1









LS55
370.00
5.00
5.00
SCAN
1
20
100
100
0
50
0
1
0
1
7
ON
720 370 
1 0 0
#HDR
-1
-1
#GR
NM

0.00002384185791015625
0.0
400.000000
0.500000
481
8
3.952659
0.707098
#DATA
400.000000	1.493000 
400.500000	1.663265 
401.000000	1.764848 
401.500000	1.796916 
402.000000	1.806666 
402.500000	1.826106 
403.000000	1.855962 
403.500000	1.886780 
404.000000	1.915272 
404.500000	1.937128 
405.000000	1.953234 
405.500000	1.967590 
406.000000	1.994840 
406.500000	2.035166 
407.000000	2.082795 
407.500000	2.122227 
408.000000	2.165893 
408.500000	2.211037 
409.000000	2.251803 
409.500000	2.275090 
410.000000	2.306643 
410.500000	2.343772 
411.000000	2.384568 
411.500000	2.417469 
412.000000	2.455037 
412.500000	2.490219 
413.000000	2.537507 
413.500000	2.569909 
414.000000	2.605583 
414.500000	2.639204 
415.000000	2.687356 
415.500000	2.734484 
416.000000	2.776704 
416.500000	2.808196 
417.000000	2.850689 
417.500000	2.900939 
418.000000	2.937772 
418.500000	2.965037 
419.000000	2.987583 
419.500000	3.017825 
420.000000	3.058681 
420.500000	3.108681 
421.000000	3.158424 
421.500000	3.196954 
422.000000	3.228446 
422.500000	3.256901 
423.000000	3.286886 
423.500000	3.309636 
424.000000	3.340363 
424.500000	3.378909 
425.000000	3.419840 
425.500000	3.441856 
426.000000	3.460378 
426.500000	3.472356 
427.000000	3.485371 
427.500000	3.499606 
428.000000	3.535833 
428.500000	3.571590 
429.000000	3.594469 
429.500000	3.590992 
430.000000	3.606356 
430.500000	3.646212 
431.000000	3.709568 
431.500000	3.754333 
432.000000	3.760242 
432.500000	3.725568 
433.000000	3.698250 
433.500000	3.723628 
434.000000	3.773378 
434.500000	3.813477 
435.000000	3.817325 
435.500000	3.818515 
436.000000	3.809318 
436.500000	3.807378 
437.000000	3.813424 
437.500000	3.844757 
438.000000	3.886742 
438.500000	3.915219 
439.000000	3.907439 
439.500000	3.889310 
440.000000	3.900136 
440.500000	3.936643 
441.000000	3.952659 
441.500000	3.931848 
442.000000	3.909689 
442.500000	3.910303 
443.000000	3.913659 
443.500000	3.899083 
444.000000	3.890106 
444.500000	3.892901 
445.000000	3.898545 
445.500000	3.880242 
446.000000	3.866280 
446.500000	3.861795 
447.000000	3.876227 
447.500000	3.876204 
448.000000	3.873060 
448.500000	3.871280 
449.000000	3.868257 
449.500000	3.860689 
450.000000	3.839500 
450.500000	3.828060 
451.000000	3.809734 
451.500000	3.806606 
452.000000	3.788613 
452.500000	3.793484 
453.000000	3.786606 
453.500000	3.769515 
454.000000	3.720515 
454.500000	3.681409 
455.000000	3.667378 
455.500000	3.670242 
456.000000	3.662242 
456.500000	3.641984 
457.000000	3.627621 
457.500000	3.611454 
458.000000	3.577159 
458.500000	3.548227 
459.000000	3.543696 
459.500000	3.558772 
460.000000	3.545386 
460.500000	3.515401 
461.000000	3.495469 
461.500000	3.493727 
462.000000	3.481984 
462.500000	3.457356 
463.000000	3.430393 
463.500000	3.399628 
464.000000	3.383439 
464.500000	3.381477 
465.000000	3.389772 
465.500000	3.395984 
466.000000	3.396560 
466.500000	3.381825 
467.000000	3.344484 
467.500000	3.301537 
468.000000	3.280121 
468.500000	3.270772 
469.000000	3.262590 
469.500000	3.249454 
470.000000	3.239553 
470.500000	3.223689 
471.000000	3.209568 
471.500000	3.200446 
472.000000	3.211772 
472.500000	3.212068 
473.000000	3.184371 
473.500000	3.140272 
474.000000	3.119015 
474.500000	3.119757 
475.000000	3.107022 
475.500000	3.074575 
476.000000	3.043265 
476.500000	3.047583 
477.000000	3.062878 
477.500000	3.075098 
478.000000	3.074628 
478.500000	3.076446 
479.000000	3.073681 
479.500000	3.067371 
480.000000	3.052750 
480.500000	3.045795 
481.000000	3.051242 
481.500000	3.062757 
482.000000	3.073060 
482.500000	3.081969 
483.000000	3.088174 
483.500000	3.094810 
484.000000	3.106787 
484.500000	3.109696 
485.000000	3.091931 
485.500000	3.057659 
486.000000	3.031734 
486.500000	3.025484 
487.000000	3.016977 
487.500000	3.002984 
488.000000	2.986734 
488.500000	2.990189 
489.000000	2.989030 
489.500000	2.967303 
490.000000	2.920954 
490.500000	2.879560 
491.000000	2.875098 
491.500000	2.906863 
492.000000	2.924931 
492.500000	2.902363 
493.000000	2.857878 
493.500000	2.843098 
494.000000	2.853409 
494.500000	2.870424 
495.000000	2.871840 
495.500000	2.871878 
496.000000	2.857492 
496.500000	2.842053 
497.000000	2.824439 
497.500000	2.824000 
498.000000	2.820651 
498.500000	2.807810 
499.000000	2.774530 
499.500000	2.751689 
500.000000	2.753590 
500.500000	2.771734 
501.000000	2.762848 
501.500000	2.724734 
502.000000	2.698454 
502.500000	2.702803 
503.000000	2.714386 
503.500000	2.693719 
504.000000	2.659795 
504.500000	2.640068 
505.000000	2.646340 
505.500000	2.645257 
506.000000	2.626060 
506.500000	2.592810 
507.000000	2.564742 
507.500000	2.533310 
508.000000	2.505575 
508.500000	2.485833 
509.000000	2.487818 
509.500000	2.504106 
510.000000	2.518984 
510.500000	2.508045 
511.000000	2.477462 
511.500000	2.456045 
512.000000	2.463575 
512.500000	2.474090 
513.000000	2.467719 
513.500000	2.441484 
514.000000	2.414893 
514.500000	2.391265 
515.000000	2.389075 
515.500000	2.392287 
516.000000	2.394659 
516.500000	2.376924 
517.000000	2.359507 
517.500000	2.344454 
518.000000	2.327098 
518.500000	2.308560 
519.000000	2.303674 
519.500000	2.318742 
520.000000	2.325893 
520.500000	2.312409 
521.000000	2.288000 
521.500000	2.269037 
522.000000	2.257522 
522.500000	2.249946 
523.000000	2.246000 
523.500000	2.241681 
524.000000	2.247522 
524.500000	2.252454 
525.000000	2.252871 
525.500000	2.243053 
526.000000	2.243916 
526.500000	2.239545 
527.000000	2.222295 
527.500000	2.195393 
528.000000	2.201780 
528.500000	2.212015 
529.000000	2.203310 
529.500000	2.172886 
530.000000	2.160681 
530.500000	2.164765 
531.000000	2.163954 
531.500000	2.147030 
532.000000	2.123500 
532.500000	2.113636 
533.000000	2.117310 
533.500000	2.126598 
534.000000	2.119075 
534.500000	2.101765 
535.000000	2.081098 
535.500000	2.073416 
536.000000	2.068689 
536.500000	2.062606 
537.000000	2.044696 
537.500000	2.035568 
538.000000	2.031439 
538.500000	2.024772 
539.000000	2.005416 
539.500000	1.995818 
540.000000	2.005689 
540.500000	2.015265 
541.000000	1.998734 
541.500000	1.968060 
542.000000	1.954780 
542.500000	1.964977 
543.000000	1.975121 
543.500000	1.963053 
544.000000	1.931939 
544.500000	1.905750 
545.000000	1.893787 
545.500000	1.887439 
546.000000	1.892621 
546.500000	1.906113 
547.000000	1.921886 
547.500000	1.915454 
548.000000	1.891659 
548.500000	1.874303 
549.000000	1.877075 
549.500000	1.878151 
550.000000	1.857893 
550.500000	1.826992 
551.000000	1.810848 
551.500000	1.817280 
552.000000	1.824272 
552.500000	1.824174 
553.000000	1.824204 
553.500000	1.824204 
554.000000	1.815560 
554.500000	1.798363 
555.000000	1.776068 
555.500000	1.765825 
556.000000	1.760234 
556.500000	1.766136 
557.000000	1.774636 
557.500000	1.783659 
558.000000	1.776848 
558.500000	1.755242 
559.000000	1.732893 
559.500000	1.718674 
560.000000	1.718537 
560.500000	1.721053 
561.000000	1.731227 
561.500000	1.736674 
562.000000	1.721143 
562.500000	1.693409 
563.000000	1.681969 
563.500000	1.697098 
564.000000	1.704151 
564.500000	1.697704 
565.000000	1.682969 
565.500000	1.669416 
566.000000	1.651500 
566.500000	1.635954 
567.000000	1.635295 
567.500000	1.642393 
568.000000	1.649651 
568.500000	1.654704 
569.000000	1.648303 
569.500000	1.620348 
570.000000	1.587257 
570.500000	1.580143 
571.000000	1.593810 
571.500000	1.599575 
572.000000	1.581401 
572.500000	1.558234 
573.000000	1.553007 
573.500000	1.558863 
574.000000	1.560924 
574.500000	1.552704 
575.000000	1.536727 
575.500000	1.522719 
576.000000	1.513871 
576.500000	1.515750 
577.000000	1.515734 
577.500000	1.520446 
578.000000	1.526068 
578.500000	1.526272 
579.000000	1.506431 
579.500000	1.480545 
580.000000	1.459348 
580.500000	1.449378 
581.000000	1.449939 
581.500000	1.458696 
582.000000	1.471378 
582.500000	1.469431 
583.000000	1.458992 
583.500000	1.435840 
584.000000	1.423530 
584.500000	1.412136 
585.000000	1.407371 
585.500000	1.388068 
586.000000	1.376969 
586.500000	1.373810 
587.000000	1.375159 
587.500000	1.364613 
588.000000	1.343439 
588.500000	1.327643 
589.000000	1.318704 
589.500000	1.324227 
590.000000	1.335962 
590.500000	1.341856 
591.000000	1.335560 
591.500000	1.326393 
592.000000	1.322803 
592.500000	1.317840 
593.000000	1.306606 
593.500000	1.294681 
594.000000	1.289325 
594.500000	1.285462 
595.000000	1.281189 
595.500000	1.274590 
596.000000	1.265750 
596.500000	1.253954 
597.000000	1.256924 
597.500000	1.271462 
598.000000	1.285515 
598.500000	1.266818 
599.000000	1.237287 
599.500000	1.214174 
600.000000	1.212780 
600.500000	1.213613 
601.000000	1.206575 
601.500000	1.196113 
602.000000	1.193878 
602.500000	1.204863 
603.000000	1.205628 
603.500000	1.191204 
604.000000	1.165636 
604.500000	1.162166 
605.000000	1.167545 
605.500000	1.173303 
606.000000	1.157242 
606.500000	1.140159 
607.000000	1.121469 
607.500000	1.118431 
608.000000	1.114363 
608.500000	1.115545 
609.000000	1.103666 
609.500000	1.095530 
610.000000	1.086272 
610.500000	1.094439 
611.000000	1.100522 
611.500000	1.095787 
612.000000	1.065060 
612.500000	1.033401 
613.000000	1.014946 
613.500000	1.011030 
614.000000	1.008901 
614.500000	1.010765 
615.000000	1.016030 
615.500000	1.016863 
616.000000	1.005636 
616.500000	0.986833 
617.000000	0.976166 
617.500000	0.974310 
618.000000	0.967628 
618.500000	0.954340 
619.000000	0.948893 
619.500000	0.950962 
620.000000	0.946416 
620.500000	0.928515 
621.000000	0.914166 
621.500000	0.913901 
622.000000	0.909545 
622.500000	0.901469 
623.000000	0.894515 
623.500000	0.896507 
624.000000	0.893318 
624.500000	0.889196 
625.000000	0.885484 
625.500000	0.883954 
626.000000	0.872901 
626.500000	0.853393 
627.000000	0.838893 
627.500000	0.836121 
628.000000	0.840212 
628.500000	0.841386 
629.000000	0.839204 
629.500000	0.836212 
630.000000	0.835143 
630.500000	0.833174 
631.000000	0.828037 
631.500000	0.812628 
632.000000	0.797871 
632.500000	0.790825 
633.000000	0.797462 
633.500000	0.799318 
634.000000	0.794416 
634.500000	0.782500 
635.000000	0.778340 
635.500000	0.771181 
636.000000	0.760704 
636.500000	0.749136 
637.000000	0.745674 
637.500000	0.740856 
638.000000	0.728098 
638.500000	0.712249 
639.000000	0.707098 
639.500000	0.710325 
640.000000	0.713000 

