PE FL                   SPECTRUM    ASCII       PEDS        1.60        
  -1
01#163.SP
02/03/17
04:23:48.00
02/03/17
04:26:16.00


550.000000
1









LS55
310.00
5.00
5.00
SCAN
1
20
100
100
0
100
0
1
0
1
7
ON
550 310 
1 0 0
#HDR
-1
-1
#GR
NM

0.00002384185791015625
0.0
320.000000
0.500000
461
8
2.418356
0.039999
#DATA
320.000000	0.039999 
320.500000	0.064068 
321.000000	0.072659 
321.500000	0.069136 
322.000000	0.058795 
322.500000	0.057121 
323.000000	0.059492 
323.500000	0.070356 
324.000000	0.069901 
324.500000	0.060712 
325.000000	0.056030 
325.500000	0.066318 
326.000000	0.077507 
326.500000	0.079348 
327.000000	0.078909 
327.500000	0.081257 
328.000000	0.080356 
328.500000	0.070151 
329.000000	0.059106 
329.500000	0.056007 
330.000000	0.060780 
330.500000	0.063734 
331.000000	0.067515 
331.500000	0.070318 
332.000000	0.071848 
332.500000	0.072295 
333.000000	0.071477 
333.500000	0.068621 
334.000000	0.065962 
334.500000	0.064401 
335.000000	0.066727 
335.500000	0.081401 
336.000000	0.097431 
336.500000	0.106750 
337.000000	0.102575 
337.500000	0.096340 
338.000000	0.091454 
338.500000	0.088022 
339.000000	0.085507 
339.500000	0.094772 
340.000000	0.105363 
340.500000	0.107863 
341.000000	0.104325 
341.500000	0.102212 
342.000000	0.105969 
342.500000	0.114530 
343.000000	0.119553 
343.500000	0.121068 
344.000000	0.118454 
344.500000	0.122833 
345.000000	0.124325 
345.500000	0.121416 
346.000000	0.111992 
346.500000	0.114166 
347.000000	0.123159 
347.500000	0.136613 
348.000000	0.143196 
348.500000	0.142431 
349.000000	0.140348 
349.500000	0.143469 
350.000000	0.152340 
350.500000	0.160439 
351.000000	0.166083 
351.500000	0.166500 
352.000000	0.160424 
352.500000	0.155401 
353.000000	0.163606 
353.500000	0.181515 
354.000000	0.188818 
354.500000	0.183469 
355.000000	0.178598 
355.500000	0.182757 
356.000000	0.186280 
356.500000	0.182265 
357.000000	0.177333 
357.500000	0.184704 
358.000000	0.201143 
358.500000	0.212250 
359.000000	0.212795 
359.500000	0.210628 
360.000000	0.215431 
360.500000	0.221856 
361.000000	0.228840 
361.500000	0.236992 
362.000000	0.244553 
362.500000	0.242871 
363.000000	0.237537 
363.500000	0.242765 
364.000000	0.262068 
364.500000	0.283121 
365.000000	0.288507 
365.500000	0.282242 
366.000000	0.274280 
366.500000	0.277386 
367.000000	0.282522 
367.500000	0.287348 
368.000000	0.297484 
368.500000	0.316212 
369.000000	0.334484 
369.500000	0.345227 
370.000000	0.353689 
370.500000	0.362250 
371.000000	0.375318 
371.500000	0.389568 
372.000000	0.407681 
372.500000	0.421893 
373.000000	0.426446 
373.500000	0.431393 
374.000000	0.444863 
374.500000	0.462825 
375.000000	0.475750 
375.500000	0.491909 
376.000000	0.506015 
376.500000	0.520136 
377.000000	0.525719 
377.500000	0.540863 
378.000000	0.568916 
378.500000	0.604022 
379.000000	0.627325 
379.500000	0.640469 
380.000000	0.645204 
380.500000	0.656439 
381.000000	0.675780 
381.500000	0.705795 
382.000000	0.735749 
382.500000	0.750969 
383.000000	0.747969 
383.500000	0.747121 
384.000000	0.764719 
384.500000	0.795787 
385.000000	0.822143 
385.500000	0.852931 
386.000000	0.889219 
386.500000	0.919098 
387.000000	0.931780 
387.500000	0.941234 
388.000000	0.957674 
388.500000	0.979848 
389.000000	1.003356 
389.500000	1.033090 
390.000000	1.063030 
390.500000	1.091143 
391.000000	1.111181 
391.500000	1.136204 
392.000000	1.161621 
392.500000	1.190742 
393.000000	1.199083 
393.500000	1.202886 
394.000000	1.213462 
394.500000	1.246931 
395.000000	1.291522 
395.500000	1.334378 
396.000000	1.364500 
396.500000	1.376689 
397.000000	1.381454 
397.500000	1.406492 
398.000000	1.448628 
398.500000	1.493098 
399.000000	1.520333 
399.500000	1.542272 
400.000000	1.548719 
400.500000	1.557530 
401.000000	1.572303 
401.500000	1.600840 
402.000000	1.629128 
402.500000	1.658500 
403.000000	1.677689 
403.500000	1.683590 
404.000000	1.687727 
404.500000	1.714946 
405.000000	1.764787 
405.500000	1.800962 
406.000000	1.804840 
406.500000	1.796356 
407.000000	1.800878 
407.500000	1.833166 
408.000000	1.862234 
408.500000	1.882159 
409.000000	1.897000 
409.500000	1.922083 
410.000000	1.949098 
410.500000	1.976856 
411.000000	1.991772 
411.500000	2.005060 
412.000000	2.021128 
412.500000	2.041477 
413.000000	2.072583 
413.500000	2.108333 
414.000000	2.140318 
414.500000	2.149712 
415.000000	2.148333 
415.500000	2.146984 
416.000000	2.154439 
416.500000	2.162969 
417.000000	2.189749 
417.500000	2.218022 
418.000000	2.218969 
418.500000	2.186727 
419.000000	2.173787 
419.500000	2.207068 
420.000000	2.259954 
420.500000	2.283704 
421.000000	2.291886 
421.500000	2.299227 
422.000000	2.330878 
422.500000	2.350250 
423.000000	2.354507 
423.500000	2.339833 
424.000000	2.329477 
424.500000	2.309818 
425.000000	2.315439 
425.500000	2.344583 
426.000000	2.377318 
426.500000	2.367287 
427.000000	2.354159 
427.500000	2.361068 
428.000000	2.394106 
428.500000	2.398409 
429.000000	2.406371 
429.500000	2.412416 
430.000000	2.418356 
430.500000	2.391265 
431.000000	2.374409 
431.500000	2.366409 
432.000000	2.372310 
432.500000	2.361856 
433.000000	2.368636 
433.500000	2.379265 
434.000000	2.383621 
434.500000	2.347159 
435.000000	2.314136 
435.500000	2.299113 
436.000000	2.330219 
436.500000	2.366871 
437.000000	2.382409 
437.500000	2.346674 
438.000000	2.285734 
438.500000	2.248492 
439.000000	2.258090 
439.500000	2.276583 
440.000000	2.262257 
440.500000	2.229696 
441.000000	2.201636 
441.500000	2.207310 
442.000000	2.219734 
442.500000	2.206189 
443.000000	2.173969 
443.500000	2.143651 
444.000000	2.138431 
444.500000	2.137962 
445.000000	2.140053 
445.500000	2.113378 
446.000000	2.086757 
446.500000	2.055189 
447.000000	2.049409 
447.500000	2.045204 
448.000000	2.048962 
448.500000	2.047083 
449.000000	2.044666 
449.500000	2.018719 
450.000000	1.979287 
450.500000	1.938643 
451.000000	1.912128 
451.500000	1.915651 
452.000000	1.925613 
452.500000	1.911007 
453.000000	1.866446 
453.500000	1.859439 
454.000000	1.876007 
454.500000	1.884325 
455.000000	1.843575 
455.500000	1.807310 
456.000000	1.797568 
456.500000	1.807560 
457.000000	1.803234 
457.500000	1.786204 
458.000000	1.767310 
458.500000	1.753689 
459.000000	1.733818 
459.500000	1.701500 
460.000000	1.658356 
460.500000	1.638454 
461.000000	1.649045 
461.500000	1.662393 
462.000000	1.652204 
462.500000	1.616371 
463.000000	1.583462 
463.500000	1.565318 
464.000000	1.563651 
464.500000	1.546446 
465.000000	1.533621 
465.500000	1.517318 
466.000000	1.520992 
466.500000	1.514469 
467.000000	1.496939 
467.500000	1.468083 
468.000000	1.442651 
468.500000	1.417265 
469.000000	1.397757 
469.500000	1.390537 
470.000000	1.407393 
470.500000	1.449803 
471.000000	1.473909 
471.500000	1.463924 
472.000000	1.417189 
472.500000	1.369909 
473.000000	1.350136 
473.500000	1.348689 
474.000000	1.341537 
474.500000	1.323666 
475.000000	1.296015 
475.500000	1.271098 
476.000000	1.255287 
476.500000	1.258492 
477.000000	1.280409 
477.500000	1.294166 
478.000000	1.280787 
478.500000	1.258893 
479.000000	1.245143 
479.500000	1.249598 
480.000000	1.274416 
480.500000	1.292469 
481.000000	1.281689 
481.500000	1.238030 
482.000000	1.195893 
482.500000	1.185477 
483.000000	1.192772 
483.500000	1.199886 
484.000000	1.195878 
484.500000	1.195954 
485.000000	1.197803 
485.500000	1.192030 
486.000000	1.173719 
486.500000	1.162871 
487.000000	1.172969 
487.500000	1.176704 
488.000000	1.155719 
488.500000	1.112772 
489.000000	1.083704 
489.500000	1.061484 
490.000000	1.049795 
490.500000	1.056878 
491.000000	1.070712 
491.500000	1.072242 
492.000000	1.059840 
492.500000	1.067401 
493.000000	1.078515 
493.500000	1.072583 
494.000000	1.047719 
494.500000	1.036507 
495.000000	1.025348 
495.500000	1.008727 
496.000000	1.003901 
496.500000	1.010484 
497.000000	1.008666 
497.500000	0.995340 
498.000000	0.990659 
498.500000	0.994007 
499.000000	0.987772 
499.500000	0.975575 
500.000000	0.971901 
500.500000	0.975416 
501.000000	0.970946 
501.500000	0.959818 
502.000000	0.948696 
502.500000	0.948401 
503.000000	0.946515 
503.500000	0.931681 
504.000000	0.907901 
504.500000	0.896893 
505.000000	0.900818 
505.500000	0.915515 
506.000000	0.914621 
506.500000	0.903780 
507.000000	0.889583 
507.500000	0.884242 
508.000000	0.886378 
508.500000	0.894068 
509.000000	0.898219 
509.500000	0.901280 
510.000000	0.891174 
510.500000	0.874969 
511.000000	0.860007 
511.500000	0.855530 
512.000000	0.852121 
512.500000	0.845098 
513.000000	0.832068 
513.500000	0.823909 
514.000000	0.826030 
514.500000	0.827454 
515.000000	0.833053 
515.500000	0.840810 
516.000000	0.846492 
516.500000	0.835742 
517.000000	0.812401 
517.500000	0.798386 
518.000000	0.796568 
518.500000	0.800333 
519.000000	0.803030 
519.500000	0.817075 
520.000000	0.826378 
520.500000	0.818780 
521.000000	0.792083 
521.500000	0.770803 
522.000000	0.771196 
522.500000	0.777318 
523.000000	0.778227 
523.500000	0.773553 
524.000000	0.777803 
524.500000	0.774166 
525.000000	0.765984 
525.500000	0.751984 
526.000000	0.753545 
526.500000	0.761818 
527.000000	0.766931 
527.500000	0.769143 
528.000000	0.769909 
528.500000	0.769977 
529.000000	0.756295 
529.500000	0.745659 
530.000000	0.737159 
530.500000	0.739962 
531.000000	0.741219 
531.500000	0.739242 
532.000000	0.731522 
532.500000	0.729810 
533.000000	0.728598 
533.500000	0.720098 
534.000000	0.700181 
534.500000	0.683439 
535.000000	0.681128 
535.500000	0.686189 
536.000000	0.683871 
536.500000	0.669030 
537.000000	0.662643 
537.500000	0.668810 
538.000000	0.688325 
538.500000	0.691545 
539.000000	0.678992 
539.500000	0.653272 
540.000000	0.633462 
540.500000	0.615469 
541.000000	0.610477 
541.500000	0.617106 
542.000000	0.634659 
542.500000	0.656651 
543.000000	0.667886 
543.500000	0.665401 
544.000000	0.656734 
544.500000	0.650734 
545.000000	0.633727 
545.500000	0.604446 
546.000000	0.592856 
546.500000	0.616000 
547.000000	0.646196 
547.500000	0.646795 
548.000000	0.633022 
548.500000	0.619568 
549.000000	0.608446 
549.500000	0.586492 
550.000000	0.558000 

