PE FL                   SPECTRUM    ASCII       PEDS        1.60        
  -1
01#162.SP
02/03/17
04:20:47.00
02/03/17
04:23:15.00


550.000000
1









LS55
310.00
5.00
5.00
SCAN
1
20
100
100
0
100
0
1
0
1
7
ON
550 310 
1 0 0
#HDR
-1
-1
#GR
NM

0.00002384185791015625
0.0
320.000000
0.500000
461
8
7.932227
0.374848
#DATA
320.000000	0.461000 
320.500000	0.426371 
321.000000	0.397037 
321.500000	0.381174 
322.000000	0.377462 
322.500000	0.384204 
323.000000	0.386030 
323.500000	0.382068 
324.000000	0.374848 
324.500000	0.375696 
325.000000	0.390431 
325.500000	0.415924 
326.000000	0.430651 
326.500000	0.419454 
327.000000	0.403242 
327.500000	0.402575 
328.000000	0.417962 
328.500000	0.426689 
329.000000	0.426424 
329.500000	0.430606 
330.000000	0.441499 
330.500000	0.457106 
331.000000	0.475439 
331.500000	0.491128 
332.000000	0.494143 
332.500000	0.486136 
333.000000	0.476196 
333.500000	0.478075 
334.000000	0.487181 
334.500000	0.492787 
335.000000	0.488037 
335.500000	0.483621 
336.000000	0.492530 
336.500000	0.518462 
337.000000	0.545303 
337.500000	0.555007 
338.000000	0.552022 
338.500000	0.545007 
339.000000	0.542909 
339.500000	0.545787 
340.000000	0.555265 
340.500000	0.562469 
341.000000	0.565469 
341.500000	0.564803 
342.000000	0.574568 
342.500000	0.592734 
343.000000	0.608295 
343.500000	0.614386 
344.000000	0.616606 
344.500000	0.620916 
345.000000	0.630583 
345.500000	0.642825 
346.000000	0.649977 
346.500000	0.661462 
347.000000	0.673083 
347.500000	0.687833 
348.000000	0.699492 
348.500000	0.702037 
349.000000	0.691090 
349.500000	0.674151 
350.000000	0.670924 
350.500000	0.689333 
351.000000	0.713500 
351.500000	0.729386 
352.000000	0.742537 
352.500000	0.760371 
353.000000	0.774469 
353.500000	0.790250 
354.000000	0.802060 
354.500000	0.816765 
355.000000	0.817204 
355.500000	0.826651 
356.000000	0.851348 
356.500000	0.889810 
357.000000	0.909007 
357.500000	0.916227 
358.000000	0.912568 
358.500000	0.913946 
359.000000	0.924757 
359.500000	0.958909 
360.000000	1.000939 
360.500000	1.021083 
361.000000	1.001787 
361.500000	0.982325 
362.000000	1.004196 
362.500000	1.066386 
363.000000	1.115818 
363.500000	1.136606 
364.000000	1.143772 
364.500000	1.162606 
365.000000	1.179196 
365.500000	1.197227 
366.000000	1.220628 
366.500000	1.259128 
367.000000	1.283734 
367.500000	1.288871 
368.000000	1.283787 
368.500000	1.302121 
369.000000	1.341310 
369.500000	1.396522 
370.000000	1.433825 
370.500000	1.465810 
371.000000	1.494621 
371.500000	1.545962 
372.000000	1.612393 
372.500000	1.676818 
373.000000	1.710954 
373.500000	1.737340 
374.000000	1.788204 
374.500000	1.867757 
375.000000	1.922863 
375.500000	1.943909 
376.000000	1.958810 
376.500000	2.004818 
377.000000	2.070984 
377.500000	2.142378 
378.000000	2.202583 
378.500000	2.265522 
379.000000	2.332121 
379.500000	2.385924 
380.000000	2.424053 
380.500000	2.463462 
381.000000	2.544969 
381.500000	2.660719 
382.000000	2.759901 
382.500000	2.818962 
383.000000	2.864689 
383.500000	2.914121 
384.000000	2.973280 
384.500000	3.045795 
385.000000	3.125810 
385.500000	3.202992 
386.000000	3.278181 
386.500000	3.354893 
387.000000	3.442840 
387.500000	3.521477 
388.000000	3.597113 
388.500000	3.669189 
389.000000	3.748462 
389.500000	3.812484 
390.000000	3.865204 
390.500000	3.914992 
391.000000	3.982969 
391.500000	4.075893 
392.000000	4.183272 
392.500000	4.290613 
393.000000	4.359651 
393.500000	4.400143 
394.000000	4.463537 
394.500000	4.572659 
395.000000	4.710575 
395.500000	4.788727 
396.000000	4.823939 
396.500000	4.842045 
397.000000	4.899818 
397.500000	5.001719 
398.000000	5.148484 
398.500000	5.294689 
399.000000	5.387575 
399.500000	5.451106 
400.000000	5.497469 
400.500000	5.576901 
401.000000	5.638075 
401.500000	5.718287 
402.000000	5.781666 
402.500000	5.855681 
403.000000	5.916681 
403.500000	6.013734 
404.000000	6.096189 
404.500000	6.155424 
405.000000	6.170136 
405.500000	6.232121 
406.000000	6.311416 
406.500000	6.415598 
407.000000	6.489416 
407.500000	6.542856 
408.000000	6.553128 
408.500000	6.567977 
409.000000	6.597780 
409.500000	6.652757 
410.000000	6.706734 
410.500000	6.791499 
411.000000	6.882424 
411.500000	6.939356 
412.000000	6.942909 
412.500000	6.948765 
413.000000	6.981462 
413.500000	7.037401 
414.000000	7.104954 
414.500000	7.171628 
415.000000	7.240613 
415.500000	7.297878 
416.000000	7.386053 
416.500000	7.462249 
417.000000	7.521469 
417.500000	7.527416 
418.000000	7.519454 
418.500000	7.524318 
419.000000	7.552030 
419.500000	7.583166 
420.000000	7.627310 
420.500000	7.700378 
421.000000	7.773393 
421.500000	7.803833 
422.000000	7.759106 
422.500000	7.727840 
423.000000	7.734143 
423.500000	7.793984 
424.000000	7.845242 
424.500000	7.889924 
425.000000	7.881098 
425.500000	7.873477 
426.000000	7.868068 
426.500000	7.917454 
427.000000	7.932227 
427.500000	7.906295 
428.000000	7.855143 
428.500000	7.829409 
429.000000	7.806022 
429.500000	7.766378 
430.000000	7.733901 
430.500000	7.746272 
431.000000	7.777696 
431.500000	7.810136 
432.000000	7.802833 
432.500000	7.772136 
433.000000	7.705568 
433.500000	7.664409 
434.000000	7.612560 
434.500000	7.601219 
435.000000	7.577015 
435.500000	7.559431 
436.000000	7.523098 
436.500000	7.491515 
437.000000	7.461166 
437.500000	7.424295 
438.000000	7.361621 
438.500000	7.304000 
439.000000	7.255045 
439.500000	7.230825 
440.000000	7.247909 
440.500000	7.269136 
441.000000	7.256287 
441.500000	7.178909 
442.000000	7.088674 
442.500000	6.985833 
443.000000	6.922931 
443.500000	6.857121 
444.000000	6.842068 
444.500000	6.801545 
445.000000	6.757553 
445.500000	6.697219 
446.000000	6.687386 
446.500000	6.681439 
447.000000	6.634015 
447.500000	6.523939 
448.000000	6.429068 
448.500000	6.392909 
449.000000	6.376386 
449.500000	6.313212 
450.000000	6.219901 
450.500000	6.141545 
451.000000	6.108560 
451.500000	6.066022 
452.000000	6.022159 
452.500000	5.935068 
453.000000	5.827196 
453.500000	5.731651 
454.000000	5.696477 
454.500000	5.684068 
455.000000	5.649098 
455.500000	5.583431 
456.000000	5.517780 
456.500000	5.471265 
457.000000	5.417977 
457.500000	5.381431 
458.000000	5.343227 
458.500000	5.292128 
459.000000	5.236280 
459.500000	5.198856 
460.000000	5.149356 
460.500000	5.075416 
461.000000	4.998818 
461.500000	4.955560 
462.000000	4.930431 
462.500000	4.873204 
463.000000	4.801128 
463.500000	4.755484 
464.000000	4.728098 
464.500000	4.679499 
465.000000	4.611318 
465.500000	4.551121 
466.000000	4.509204 
466.500000	4.478856 
467.000000	4.451568 
467.500000	4.418000 
468.000000	4.365878 
468.500000	4.305121 
469.000000	4.250000 
469.500000	4.216863 
470.000000	4.197128 
470.500000	4.182037 
471.000000	4.127333 
471.500000	4.051871 
472.000000	3.983772 
472.500000	3.958590 
473.000000	3.938636 
473.500000	3.914310 
474.000000	3.879651 
474.500000	3.854757 
475.000000	3.822227 
475.500000	3.777113 
476.000000	3.713204 
476.500000	3.666272 
477.000000	3.645219 
477.500000	3.633053 
478.000000	3.614454 
478.500000	3.594500 
479.000000	3.594181 
479.500000	3.590537 
480.000000	3.564856 
480.500000	3.511060 
481.000000	3.458068 
481.500000	3.436666 
482.000000	3.438121 
482.500000	3.443522 
483.000000	3.415113 
483.500000	3.395409 
484.000000	3.385098 
484.500000	3.392734 
485.000000	3.381492 
485.500000	3.356818 
486.000000	3.314469 
486.500000	3.271363 
487.000000	3.229803 
487.500000	3.212803 
488.000000	3.179378 
488.500000	3.136143 
489.000000	3.084666 
489.500000	3.071863 
490.000000	3.066893 
490.500000	3.063378 
491.000000	3.048833 
491.500000	3.043499 
492.000000	3.032962 
492.500000	3.000704 
493.000000	2.945106 
493.500000	2.891696 
494.000000	2.878318 
494.500000	2.896325 
495.000000	2.902250 
495.500000	2.896954 
496.000000	2.871007 
496.500000	2.842560 
497.000000	2.793083 
497.500000	2.755643 
498.000000	2.730280 
498.500000	2.728462 
499.000000	2.723022 
499.500000	2.735954 
500.000000	2.743553 
500.500000	2.740999 
501.000000	2.729318 
501.500000	2.718363 
502.000000	2.698856 
502.500000	2.661575 
503.000000	2.630136 
503.500000	2.616325 
504.000000	2.627704 
504.500000	2.618750 
505.000000	2.598409 
505.500000	2.568560 
506.000000	2.545712 
506.500000	2.522893 
507.000000	2.520636 
507.500000	2.548727 
508.000000	2.573515 
508.500000	2.571568 
509.000000	2.541219 
509.500000	2.501931 
510.000000	2.463075 
510.500000	2.435780 
511.000000	2.413734 
511.500000	2.392068 
512.000000	2.378833 
512.500000	2.370659 
513.000000	2.371181 
513.500000	2.373606 
514.000000	2.387416 
514.500000	2.403954 
515.000000	2.391780 
515.500000	2.353371 
516.000000	2.310969 
516.500000	2.279901 
517.000000	2.253234 
517.500000	2.240681 
518.000000	2.234469 
518.500000	2.226750 
519.000000	2.219848 
519.500000	2.216030 
520.000000	2.221840 
520.500000	2.228530 
521.000000	2.224636 
521.500000	2.201242 
522.000000	2.154484 
522.500000	2.114068 
523.000000	2.091159 
523.500000	2.105287 
524.000000	2.121522 
524.500000	2.143439 
525.000000	2.144598 
525.500000	2.137666 
526.000000	2.121227 
526.500000	2.095446 
527.000000	2.073113 
527.500000	2.064431 
528.000000	2.076318 
528.500000	2.071689 
529.000000	2.053621 
529.500000	2.017901 
530.000000	2.009583 
530.500000	2.026530 
531.000000	2.049113 
531.500000	2.049886 
532.000000	2.023386 
532.500000	1.988333 
533.000000	1.950931 
533.500000	1.923030 
534.000000	1.904863 
534.500000	1.914560 
535.000000	1.938522 
535.500000	1.958409 
536.000000	1.968409 
536.500000	1.949469 
537.000000	1.921734 
537.500000	1.884742 
538.000000	1.874378 
538.500000	1.877651 
539.000000	1.883924 
539.500000	1.881053 
540.000000	1.881204 
540.500000	1.875825 
541.000000	1.858333 
541.500000	1.847250 
542.000000	1.849598 
542.500000	1.854825 
543.000000	1.835916 
543.500000	1.800651 
544.000000	1.774174 
544.500000	1.751424 
545.000000	1.724787 
545.500000	1.704984 
546.000000	1.709295 
546.500000	1.724803 
547.000000	1.727287 
547.500000	1.717295 
548.000000	1.700810 
548.500000	1.699909 
549.000000	1.704174 
549.500000	1.708363 
550.000000	1.709000 

