PE FL                   SPECTRUM    ASCII       PEDS        1.60        
  -1
01#161.SP
02/03/17
04:17:58.00
02/03/17
04:20:26.00


550.000000
1









LS55
310.00
5.00
5.00
SCAN
1
20
100
100
0
100
0
1
0
1
7
ON
550 310 
1 0 0
#HDR
-1
-1
#GR
NM

0.00002384185791015625
0.0
320.000000
0.500000
461
8
3.707795
0.124787
#DATA
320.000000	0.264000 
320.500000	0.196340 
321.000000	0.155113 
321.500000	0.142196 
322.000000	0.143227 
322.500000	0.147348 
323.000000	0.142878 
323.500000	0.133681 
324.000000	0.124787 
324.500000	0.129575 
325.000000	0.136590 
325.500000	0.140901 
326.000000	0.140856 
326.500000	0.142856 
327.000000	0.143416 
327.500000	0.143204 
328.000000	0.145257 
328.500000	0.146098 
329.000000	0.146090 
329.500000	0.141863 
330.000000	0.140416 
330.500000	0.145045 
331.000000	0.154742 
331.500000	0.161984 
332.000000	0.159022 
332.500000	0.145628 
333.000000	0.134931 
333.500000	0.137636 
334.000000	0.146871 
334.500000	0.152303 
335.000000	0.154060 
335.500000	0.163250 
336.000000	0.177818 
336.500000	0.187598 
337.000000	0.184530 
337.500000	0.180409 
338.000000	0.179757 
338.500000	0.182992 
339.000000	0.189977 
339.500000	0.194863 
340.000000	0.195007 
340.500000	0.189378 
341.000000	0.187090 
341.500000	0.191416 
342.000000	0.198992 
342.500000	0.199772 
343.000000	0.196250 
343.500000	0.196840 
344.000000	0.202560 
344.500000	0.206590 
345.000000	0.198765 
345.500000	0.188916 
346.000000	0.194674 
346.500000	0.212537 
347.000000	0.222515 
347.500000	0.218621 
348.000000	0.218386 
348.500000	0.236090 
349.000000	0.252530 
349.500000	0.257515 
350.000000	0.253613 
350.500000	0.252189 
351.000000	0.251371 
351.500000	0.254757 
352.000000	0.263651 
352.500000	0.269742 
353.000000	0.271462 
353.500000	0.268045 
354.000000	0.276825 
354.500000	0.284643 
355.000000	0.295439 
355.500000	0.303924 
356.000000	0.310409 
356.500000	0.313219 
357.000000	0.322166 
357.500000	0.337984 
358.000000	0.350696 
358.500000	0.355522 
359.000000	0.353378 
359.500000	0.354659 
360.000000	0.357166 
360.500000	0.357962 
361.000000	0.363492 
361.500000	0.373553 
362.000000	0.387007 
362.500000	0.391416 
363.000000	0.389795 
363.500000	0.391469 
364.000000	0.407333 
364.500000	0.431212 
365.000000	0.441719 
365.500000	0.434454 
366.000000	0.433825 
366.500000	0.455568 
367.000000	0.478401 
367.500000	0.485090 
368.000000	0.493484 
368.500000	0.514242 
369.000000	0.539719 
369.500000	0.542250 
370.000000	0.549136 
370.500000	0.562742 
371.000000	0.592227 
371.500000	0.608992 
372.000000	0.628621 
372.500000	0.637583 
373.000000	0.653106 
373.500000	0.665219 
374.000000	0.684416 
374.500000	0.711598 
375.000000	0.738598 
375.500000	0.762780 
376.000000	0.783431 
376.500000	0.812257 
377.000000	0.834348 
377.500000	0.857371 
378.000000	0.875189 
378.500000	0.905401 
379.000000	0.931780 
379.500000	0.959568 
380.000000	0.981954 
380.500000	1.005659 
381.000000	1.024007 
381.500000	1.057833 
382.000000	1.098977 
382.500000	1.140363 
383.000000	1.160234 
383.500000	1.178916 
384.000000	1.219704 
384.500000	1.280340 
385.000000	1.328409 
385.500000	1.351606 
386.000000	1.369878 
386.500000	1.412560 
387.000000	1.472121 
387.500000	1.522924 
388.000000	1.564924 
388.500000	1.605469 
389.000000	1.646606 
389.500000	1.671492 
390.000000	1.680393 
390.500000	1.695689 
391.000000	1.725636 
391.500000	1.765628 
392.000000	1.809734 
392.500000	1.866128 
393.000000	1.919863 
393.500000	1.963356 
394.000000	2.006053 
394.500000	2.055446 
395.000000	2.105810 
395.500000	2.136924 
396.000000	2.163045 
396.500000	2.195575 
397.000000	2.242931 
397.500000	2.280840 
398.000000	2.300015 
398.500000	2.319886 
399.000000	2.337651 
399.500000	2.373545 
400.000000	2.407439 
400.500000	2.461325 
401.000000	2.511416 
401.500000	2.553356 
402.000000	2.572045 
402.500000	2.612750 
403.000000	2.660750 
403.500000	2.675568 
404.000000	2.656378 
404.500000	2.655348 
405.000000	2.701378 
405.500000	2.754810 
406.000000	2.784257 
406.500000	2.790757 
407.000000	2.810757 
407.500000	2.847280 
408.000000	2.906712 
408.500000	2.967704 
409.000000	3.012757 
409.500000	3.034621 
410.000000	3.040810 
410.500000	3.042833 
411.000000	3.067212 
411.500000	3.118113 
412.000000	3.156560 
412.500000	3.180386 
413.000000	3.203022 
413.500000	3.267772 
414.000000	3.319613 
414.500000	3.336553 
415.000000	3.313939 
415.500000	3.326196 
416.000000	3.356931 
416.500000	3.382825 
417.000000	3.383106 
417.500000	3.387196 
418.000000	3.397750 
418.500000	3.392734 
419.000000	3.411689 
419.500000	3.461962 
420.000000	3.533159 
420.500000	3.549583 
421.000000	3.540234 
421.500000	3.533636 
422.000000	3.566765 
422.500000	3.594598 
423.000000	3.603348 
423.500000	3.593113 
424.000000	3.593962 
424.500000	3.599628 
425.000000	3.606916 
425.500000	3.612719 
426.000000	3.652727 
426.500000	3.693499 
427.000000	3.707795 
427.500000	3.668901 
428.000000	3.628916 
428.500000	3.588219 
429.000000	3.567409 
429.500000	3.551007 
430.000000	3.561696 
430.500000	3.596159 
431.000000	3.627537 
431.500000	3.643962 
432.000000	3.638075 
432.500000	3.620492 
433.000000	3.588189 
433.500000	3.556454 
434.000000	3.529681 
434.500000	3.539242 
435.000000	3.571613 
435.500000	3.599992 
436.000000	3.573015 
436.500000	3.528378 
437.000000	3.482265 
437.500000	3.467257 
438.000000	3.426916 
438.500000	3.391189 
439.000000	3.349651 
439.500000	3.347553 
440.000000	3.353750 
440.500000	3.386742 
441.000000	3.420295 
441.500000	3.428765 
442.000000	3.378439 
442.500000	3.317234 
443.000000	3.270909 
443.500000	3.273651 
444.000000	3.274560 
444.500000	3.258712 
445.000000	3.194780 
445.500000	3.119848 
446.000000	3.060462 
446.500000	3.080757 
447.000000	3.126015 
447.500000	3.136083 
448.000000	3.085954 
448.500000	3.032151 
449.000000	2.998962 
449.500000	2.993530 
450.000000	2.972681 
450.500000	2.946666 
451.000000	2.908666 
451.500000	2.864378 
452.000000	2.810712 
452.500000	2.778507 
453.000000	2.778204 
453.500000	2.782621 
454.000000	2.775560 
454.500000	2.754515 
455.000000	2.745363 
455.500000	2.714878 
456.000000	2.659522 
456.500000	2.609030 
457.000000	2.601409 
457.500000	2.613651 
458.000000	2.609363 
458.500000	2.580174 
459.000000	2.532787 
459.500000	2.481954 
460.000000	2.428477 
460.500000	2.404272 
461.000000	2.403484 
461.500000	2.408750 
462.000000	2.404106 
462.500000	2.384606 
463.000000	2.354856 
463.500000	2.323280 
464.000000	2.307568 
464.500000	2.300537 
465.000000	2.276878 
465.500000	2.244636 
466.000000	2.233522 
466.500000	2.248037 
467.000000	2.236356 
467.500000	2.197090 
468.000000	2.144590 
468.500000	2.116446 
469.000000	2.093689 
469.500000	2.081772 
470.000000	2.071303 
470.500000	2.070651 
471.000000	2.071181 
471.500000	2.081681 
472.000000	2.092492 
472.500000	2.081477 
473.000000	2.048037 
473.500000	2.018901 
474.000000	2.010068 
474.500000	1.993606 
475.000000	1.955386 
475.500000	1.916553 
476.000000	1.904227 
476.500000	1.906439 
477.000000	1.893303 
477.500000	1.884181 
478.000000	1.870507 
478.500000	1.855007 
479.000000	1.819007 
479.500000	1.801053 
480.000000	1.805954 
480.500000	1.830969 
481.000000	1.827454 
481.500000	1.809522 
482.000000	1.795477 
482.500000	1.799931 
483.000000	1.808840 
483.500000	1.798045 
484.000000	1.765219 
484.500000	1.729136 
485.000000	1.712037 
485.500000	1.699856 
486.000000	1.705181 
486.500000	1.702045 
487.000000	1.700954 
487.500000	1.679128 
488.000000	1.662045 
488.500000	1.647507 
489.000000	1.652401 
489.500000	1.646189 
490.000000	1.649507 
490.500000	1.642310 
491.000000	1.626818 
491.500000	1.595674 
492.000000	1.577000 
492.500000	1.553613 
493.000000	1.527606 
493.500000	1.497386 
494.000000	1.486287 
494.500000	1.482045 
495.000000	1.474984 
495.500000	1.459045 
496.000000	1.437090 
496.500000	1.420272 
497.000000	1.425931 
497.500000	1.449204 
498.000000	1.458356 
498.500000	1.430386 
499.000000	1.386022 
499.500000	1.356333 
500.000000	1.352409 
500.500000	1.366113 
501.000000	1.381659 
501.500000	1.392613 
502.000000	1.384234 
502.500000	1.364439 
503.000000	1.339393 
503.500000	1.327431 
504.000000	1.308022 
504.500000	1.293628 
505.000000	1.282840 
505.500000	1.282356 
506.000000	1.271643 
506.500000	1.258469 
507.000000	1.239818 
507.500000	1.232909 
508.000000	1.239568 
508.500000	1.258075 
509.000000	1.261803 
509.500000	1.247303 
510.000000	1.233446 
510.500000	1.241962 
511.000000	1.255181 
511.500000	1.253181 
512.000000	1.230159 
512.500000	1.196712 
513.000000	1.181128 
513.500000	1.191431 
514.000000	1.199856 
514.500000	1.182568 
515.000000	1.152893 
515.500000	1.143219 
516.000000	1.149030 
516.500000	1.155250 
517.000000	1.145909 
517.500000	1.138795 
518.000000	1.135818 
518.500000	1.131121 
519.000000	1.114795 
519.500000	1.090136 
520.000000	1.084090 
520.500000	1.087401 
521.000000	1.102780 
521.500000	1.088757 
522.000000	1.083984 
522.500000	1.074515 
523.000000	1.084924 
523.500000	1.081568 
524.000000	1.076181 
524.500000	1.055090 
525.000000	1.039643 
525.500000	1.029409 
526.000000	1.021477 
526.500000	1.027393 
527.000000	1.044977 
527.500000	1.076363 
528.000000	1.076075 
528.500000	1.047401 
529.000000	1.014227 
529.500000	1.018378 
530.000000	1.034386 
530.500000	1.030780 
531.000000	1.001734 
531.500000	0.982757 
532.000000	0.979386 
532.500000	0.981257 
533.000000	0.979962 
533.500000	0.981340 
534.000000	0.979053 
534.500000	0.962954 
535.000000	0.947742 
535.500000	0.956560 
536.000000	0.970765 
536.500000	0.964000 
537.000000	0.940613 
537.500000	0.928219 
538.000000	0.930651 
538.500000	0.940469 
539.000000	0.939613 
539.500000	0.935446 
540.000000	0.920128 
540.500000	0.911727 
541.000000	0.909257 
541.500000	0.912946 
542.000000	0.902598 
542.500000	0.893492 
543.000000	0.889818 
543.500000	0.897939 
544.000000	0.898643 
544.500000	0.891204 
545.000000	0.876454 
545.500000	0.857098 
546.000000	0.843257 
546.500000	0.846212 
547.000000	0.860431 
547.500000	0.865659 
548.000000	0.854159 
548.500000	0.850295 
549.000000	0.860545 
549.500000	0.862696 
550.000000	0.844999 

