PE FL                   SPECTRUM    ASCII       PEDS        1.60        
  -1
01#167.SP
02/03/17
04:41:53.00
02/03/17
04:45:26.00


400.000000
1









LS55
430.00
2.50
2.50
SCAN
1
20
100
100
0
50
0
0
0
1
7
ON
450 420 
1 0 0
#HDR
-1
-1
#GR
NM

0.00002384185791015625
0.0
230.000000
0.500000
341
8
1.157666
-0.026133
#DATA
230.000000	0.000000  
230.500000	0.000000  
231.000000	0.000000  
231.500000	0.000000  
232.000000	0.000666  
232.500000	-0.000133 
233.000000	-0.016133 
233.500000	-0.026133 
234.000000	-0.010200 
234.500000	0.018733  
235.000000	0.044200  
235.500000	0.054199  
236.000000	0.034200  
236.500000	0.007266  
237.000000	-0.002666 
237.500000	0.000000  
238.000000	-0.001133 
238.500000	0.000066  
239.000000	0.026600  
239.500000	0.044466  
240.000000	0.052733  
240.500000	0.063066  
241.000000	0.038333  
241.500000	0.012000  
242.000000	0.027133  
242.500000	0.024533  
243.000000	0.004133  
243.500000	-0.002400 
244.000000	0.020933  
244.500000	0.049333  
245.000000	0.047999  
245.500000	0.069400  
246.000000	0.095533  
246.500000	0.073733  
247.000000	0.069200  
247.500000	0.072866  
248.000000	0.030666  
248.500000	-0.000800 
249.000000	-0.001199 
249.500000	0.024066  
250.000000	0.039533  
250.500000	0.052200  
251.000000	0.079933  
251.500000	0.061333  
252.000000	0.008600  
252.500000	0.009466  
253.000000	0.036133  
253.500000	0.063200  
254.000000	0.115933  
254.500000	0.126733  
255.000000	0.068599  
255.500000	0.034000  
256.000000	0.027000  
256.500000	0.028000  
257.000000	0.052133  
257.500000	0.043200  
258.000000	0.024333  
258.500000	0.065200  
259.000000	0.103000  
259.500000	0.083999  
260.000000	0.070799  
260.500000	0.080133  
261.000000	0.090266  
261.500000	0.105533  
262.000000	0.091400  
262.500000	0.063600  
263.000000	0.067866  
263.500000	0.052200  
264.000000	0.022066  
264.500000	0.063333  
265.000000	0.132000  
265.500000	0.125733  
266.000000	0.056666  
266.500000	0.017866  
267.000000	0.050066  
267.500000	0.074000  
268.000000	0.048000  
268.500000	0.042200  
269.000000	0.076933  
269.500000	0.099799  
270.000000	0.069866  
270.500000	0.024466  
271.000000	0.021066  
271.500000	0.043133  
272.000000	0.058199  
272.500000	0.064733  
273.000000	0.075733  
273.500000	0.101866  
274.000000	0.093133  
274.500000	0.078333  
275.000000	0.095733  
275.500000	0.102400  
276.000000	0.121733  
276.500000	0.161000  
277.000000	0.152533  
277.500000	0.133533  
278.000000	0.112866  
278.500000	0.071999  
279.000000	0.060200  
279.500000	0.071333  
280.000000	0.098866  
280.500000	0.121066  
281.000000	0.071333  
281.500000	0.013200  
282.000000	0.041400  
282.500000	0.114400  
283.000000	0.140600  
283.500000	0.107933  
284.000000	0.071333  
284.500000	0.075533  
285.000000	0.126400  
285.500000	0.133866  
286.000000	0.076533  
286.500000	0.051866  
287.000000	0.089800  
287.500000	0.097599  
288.000000	0.056466  
288.500000	0.073666  
289.000000	0.122866  
289.500000	0.091933  
290.000000	0.063933  
290.500000	0.098999  
291.000000	0.127333  
291.500000	0.113333  
292.000000	0.093400  
292.500000	0.105600  
293.000000	0.137733  
293.500000	0.140733  
294.000000	0.101400  
294.500000	0.065066  
295.000000	0.055266  
295.500000	0.084666  
296.000000	0.183733  
296.500000	0.253266  
297.000000	0.221933  
297.500000	0.183533  
298.000000	0.188733  
298.500000	0.232200  
299.000000	0.305399  
299.500000	0.336733  
300.000000	0.350666  
300.500000	0.461933  
301.000000	0.573800  
301.500000	0.605266  
302.000000	0.627533  
302.500000	0.685199  
303.000000	0.733533  
303.500000	0.779333  
304.000000	0.866599  
304.500000	0.970600  
305.000000	1.007400  
305.500000	1.074733  
306.000000	1.120466  
306.500000	1.102866  
307.000000	1.145466  
307.500000	1.157666  
308.000000	1.089000  
308.500000	1.073066  
309.000000	1.083133  
309.500000	1.044400  
310.000000	1.034400  
310.500000	1.074200  
311.000000	1.096600  
311.500000	1.027533  
312.000000	0.958466  
312.500000	0.891066  
313.000000	0.835066  
313.500000	0.830333  
314.000000	0.865600  
314.500000	0.869400  
315.000000	0.815733  
315.500000	0.752933  
316.000000	0.754266  
316.500000	0.767533  
317.000000	0.744133  
317.500000	0.684266  
318.000000	0.613266  
318.500000	0.602866  
319.000000	0.655533  
319.500000	0.699800  
320.000000	0.692400  
320.500000	0.628200  
321.000000	0.552533  
321.500000	0.558866  
322.000000	0.599266  
322.500000	0.583799  
323.000000	0.488066  
323.500000	0.368800  
324.000000	0.381000  
324.500000	0.440400  
325.000000	0.399600  
325.500000	0.393000  
326.000000	0.445266  
326.500000	0.442600  
327.000000	0.408400  
327.500000	0.398666  
328.000000	0.422933  
328.500000	0.486133  
329.000000	0.519066  
329.500000	0.460200  
330.000000	0.404133  
330.500000	0.444866  
331.000000	0.524200  
331.500000	0.600333  
332.000000	0.590399  
332.500000	0.551200  
333.000000	0.593400  
333.500000	0.614866  
334.000000	0.570199  
334.500000	0.560933  
335.000000	0.617466  
335.500000	0.648400  
336.000000	0.587399  
336.500000	0.541466  
337.000000	0.545000  
337.500000	0.560266  
338.000000	0.603466  
338.500000	0.622200  
339.000000	0.577533  
339.500000	0.557533  
340.000000	0.629333  
340.500000	0.722800  
341.000000	0.707133  
341.500000	0.631466  
342.000000	0.620799  
342.500000	0.644200  
343.000000	0.634066  
343.500000	0.624466  
344.000000	0.686800  
344.500000	0.775666  
345.000000	0.809066  
345.500000	0.815133  
346.000000	0.825599  
346.500000	0.824133  
347.000000	0.805199  
347.500000	0.771466  
348.000000	0.813600  
348.500000	0.850266  
349.000000	0.791933  
349.500000	0.746200  
350.000000	0.760866  
350.500000	0.849600  
351.000000	0.925933  
351.500000	0.868333  
352.000000	0.762399  
352.500000	0.719599  
353.000000	0.800333  
353.500000	0.921000  
354.000000	0.918866  
354.500000	0.866266  
355.000000	0.845200  
355.500000	0.867733  
356.000000	0.903200  
356.500000	0.882600  
357.000000	0.898533  
357.500000	0.946733  
358.000000	0.913400  
358.500000	0.875133  
359.000000	0.938200  
359.500000	1.019266  
360.000000	0.993866  
360.500000	0.912200  
361.000000	0.919866  
361.500000	0.981666  
362.000000	0.951466  
362.500000	0.870599  
363.000000	0.922400  
363.500000	1.106800  
364.000000	1.121800  
364.500000	0.896600  
365.000000	0.867466  
365.500000	1.000000  
366.000000	0.937666  
366.500000	0.863200  
367.000000	0.941866  
367.500000	1.004066  
368.000000	0.939533  
368.500000	0.833333  
369.000000	0.852733  
369.500000	0.884333  
370.000000	0.879733  
370.500000	0.932666  
371.000000	0.976866  
371.500000	0.969533  
372.000000	0.981800  
372.500000	0.997466  
373.000000	0.983066  
373.500000	0.964199  
374.000000	0.961133  
374.500000	0.932999  
375.000000	0.924866  
375.500000	0.953533  
376.000000	0.899333  
376.500000	0.855866  
377.000000	0.922466  
377.500000	0.947466  
378.000000	0.926400  
378.500000	0.913133  
379.000000	0.860866  
379.500000	0.849133  
380.000000	0.892600  
380.500000	0.915666  
381.000000	0.864200  
381.500000	0.768800  
382.000000	0.741666  
382.500000	0.812333  
383.000000	0.824466  
383.500000	0.787333  
384.000000	0.763466  
384.500000	0.766199  
385.000000	0.800999  
385.500000	0.801800  
386.000000	0.743133  
386.500000	0.700599  
387.000000	0.705466  
387.500000	0.751133  
388.000000	0.764800  
388.500000	0.770666  
389.000000	0.799800  
389.500000	0.779666  
390.000000	0.673400  
390.500000	0.608333  
391.000000	0.690600  
391.500000	0.770466  
392.000000	0.754533  
392.500000	0.756000  
393.000000	0.721399  
393.500000	0.597200  
394.000000	0.597466  
394.500000	0.717800  
395.000000	0.708533  
395.500000	0.623933  
396.000000	0.633400  
396.500000	0.705000  
397.000000	0.742599  
397.500000	0.699000  
398.000000	0.642933  
398.500000	0.662533  
399.000000	0.711000  
399.500000	0.678133  
400.000000	0.549000  

