PE FL                   SPECTRUM    ASCII       PEDS        1.60        
  -1
01#164.SP
02/03/17
04:28:34.00
02/03/17
04:30:51.00


480.000000
1









LS55
500.00
5.00
5.00
SCAN
1
20
100
100
0
100
0
0
0
1
7
ON
550 310 
1 0 0
#HDR
-1
-1
#GR
NM

0.00002384185791015625
0.0
270.000000
0.500000
421
8
2.791939
0.554621
#DATA
270.000000	0.774999 
270.500000	0.752159 
271.000000	0.743053 
271.500000	0.742962 
272.000000	0.736984 
272.500000	0.726386 
273.000000	0.717416 
273.500000	0.705946 
274.000000	0.705409 
274.500000	0.717848 
275.000000	0.732469 
275.500000	0.733628 
276.000000	0.724492 
276.500000	0.708992 
277.000000	0.699499 
277.500000	0.704287 
278.000000	0.715000 
278.500000	0.726022 
279.000000	0.717954 
279.500000	0.711742 
280.000000	0.709113 
280.500000	0.708462 
281.000000	0.693159 
281.500000	0.680151 
282.000000	0.676848 
282.500000	0.680568 
283.000000	0.682984 
283.500000	0.678143 
284.000000	0.683454 
284.500000	0.682977 
285.000000	0.683007 
285.500000	0.666803 
286.000000	0.657590 
286.500000	0.650863 
287.000000	0.659749 
287.500000	0.665886 
288.000000	0.670484 
288.500000	0.667507 
289.000000	0.665113 
289.500000	0.658325 
290.000000	0.649772 
290.500000	0.639674 
291.000000	0.629333 
291.500000	0.616295 
292.000000	0.613803 
292.500000	0.614000 
293.000000	0.611424 
293.500000	0.589287 
294.000000	0.575916 
294.500000	0.575734 
295.000000	0.583606 
295.500000	0.573833 
296.000000	0.563166 
296.500000	0.554621 
297.000000	0.560787 
297.500000	0.569401 
298.000000	0.595537 
298.500000	0.624083 
299.000000	0.652848 
299.500000	0.675719 
300.000000	0.715984 
300.500000	0.762712 
301.000000	0.822083 
301.500000	0.873416 
302.000000	0.922212 
302.500000	0.965553 
303.000000	1.019598 
303.500000	1.072825 
304.000000	1.116553 
304.500000	1.132992 
305.000000	1.153219 
305.500000	1.190719 
306.000000	1.252621 
306.500000	1.303037 
307.000000	1.331015 
307.500000	1.346454 
308.000000	1.369454 
308.500000	1.400848 
309.000000	1.430522 
309.500000	1.446401 
310.000000	1.432136 
310.500000	1.415409 
311.000000	1.421939 
311.500000	1.450984 
312.000000	1.475196 
312.500000	1.478189 
313.000000	1.481000 
313.500000	1.468833 
314.000000	1.443613 
314.500000	1.414666 
315.000000	1.425750 
315.500000	1.456204 
316.000000	1.487371 
316.500000	1.494348 
317.000000	1.484484 
317.500000	1.455000 
318.000000	1.442590 
318.500000	1.452500 
319.000000	1.486462 
319.500000	1.490462 
320.000000	1.461037 
320.500000	1.424962 
321.000000	1.428636 
321.500000	1.455053 
322.000000	1.477772 
322.500000	1.489924 
323.000000	1.498962 
323.500000	1.509484 
324.000000	1.503431 
324.500000	1.497189 
325.000000	1.503719 
325.500000	1.508121 
326.000000	1.513121 
326.500000	1.515401 
327.000000	1.526166 
327.500000	1.515871 
328.000000	1.507106 
328.500000	1.510303 
329.000000	1.539007 
329.500000	1.551492 
330.000000	1.570780 
330.500000	1.601909 
331.000000	1.629333 
331.500000	1.627727 
332.000000	1.612696 
332.500000	1.610787 
333.000000	1.623893 
333.500000	1.651977 
334.000000	1.674787 
334.500000	1.706939 
335.000000	1.722030 
335.500000	1.739871 
336.000000	1.749818 
336.500000	1.757280 
337.000000	1.750083 
337.500000	1.755484 
338.000000	1.767469 
338.500000	1.791393 
339.000000	1.821227 
339.500000	1.849568 
340.000000	1.857431 
340.500000	1.855765 
341.000000	1.857151 
341.500000	1.878636 
342.000000	1.891356 
342.500000	1.905712 
343.000000	1.929704 
343.500000	1.968833 
344.000000	2.005136 
344.500000	2.033469 
345.000000	2.056287 
345.500000	2.074969 
346.000000	2.083712 
346.500000	2.092568 
347.000000	2.107666 
347.500000	2.124681 
348.000000	2.137666 
348.500000	2.142204 
349.000000	2.137583 
349.500000	2.154113 
350.000000	2.198143 
350.500000	2.239901 
351.000000	2.261742 
351.500000	2.258477 
352.000000	2.262833 
352.500000	2.274007 
353.000000	2.288780 
353.500000	2.309954 
354.000000	2.351083 
354.500000	2.388780 
355.000000	2.396454 
355.500000	2.394568 
356.000000	2.411674 
356.500000	2.447848 
357.000000	2.462371 
357.500000	2.468848 
358.000000	2.499553 
358.500000	2.566015 
359.000000	2.615356 
359.500000	2.626090 
360.000000	2.614742 
360.500000	2.602537 
361.000000	2.598287 
361.500000	2.604181 
362.000000	2.618045 
362.500000	2.637060 
363.000000	2.674090 
363.500000	2.714310 
364.000000	2.729151 
364.500000	2.719924 
365.000000	2.703666 
365.500000	2.716022 
366.000000	2.730666 
366.500000	2.760250 
367.000000	2.780795 
367.500000	2.791939 
368.000000	2.769492 
368.500000	2.743674 
369.000000	2.733878 
369.500000	2.745583 
370.000000	2.758234 
370.500000	2.752166 
371.000000	2.743439 
371.500000	2.734363 
372.000000	2.721962 
372.500000	2.698295 
373.000000	2.686901 
373.500000	2.688189 
374.000000	2.698946 
374.500000	2.690825 
375.000000	2.673613 
375.500000	2.634280 
376.000000	2.583204 
376.500000	2.520977 
377.000000	2.499128 
377.500000	2.495386 
378.000000	2.493962 
378.500000	2.467303 
379.000000	2.432204 
379.500000	2.411287 
380.000000	2.404901 
380.500000	2.389348 
381.000000	2.361037 
381.500000	2.338416 
382.000000	2.319840 
382.500000	2.288643 
383.000000	2.254757 
383.500000	2.232106 
384.000000	2.233212 
384.500000	2.211984 
385.000000	2.165030 
385.500000	2.100151 
386.000000	2.064454 
386.500000	2.061007 
387.000000	2.070318 
387.500000	2.055840 
388.000000	2.023356 
388.500000	1.987689 
389.000000	1.967537 
389.500000	1.942621 
390.000000	1.913469 
390.500000	1.878363 
391.000000	1.853878 
391.500000	1.837553 
392.000000	1.829310 
392.500000	1.814007 
393.000000	1.781939 
393.500000	1.744810 
394.000000	1.709378 
394.500000	1.699151 
395.000000	1.689916 
395.500000	1.690257 
396.000000	1.675712 
396.500000	1.659424 
397.000000	1.616484 
397.500000	1.578242 
398.000000	1.545128 
398.500000	1.529810 
399.000000	1.504613 
399.500000	1.492833 
400.000000	1.479659 
400.500000	1.460484 
401.000000	1.423454 
401.500000	1.390492 
402.000000	1.374484 
402.500000	1.373060 
403.000000	1.366234 
403.500000	1.353666 
404.000000	1.334000 
404.500000	1.305083 
405.000000	1.276462 
405.500000	1.253878 
406.000000	1.244742 
406.500000	1.243295 
407.000000	1.232515 
407.500000	1.214287 
408.000000	1.202568 
408.500000	1.186234 
409.000000	1.154204 
409.500000	1.107000 
410.000000	1.077795 
410.500000	1.077431 
411.000000	1.086424 
411.500000	1.081295 
412.000000	1.077416 
412.500000	1.073878 
413.000000	1.072446 
413.500000	1.071234 
414.000000	1.074636 
414.500000	1.070037 
415.000000	1.054500 
415.500000	1.032886 
416.000000	1.016257 
416.500000	1.007909 
417.000000	1.004583 
417.500000	1.003522 
418.000000	0.994439 
418.500000	0.974863 
419.000000	0.954727 
419.500000	0.938818 
420.000000	0.933333 
420.500000	0.923189 
421.000000	0.905628 
421.500000	0.884340 
422.000000	0.886409 
422.500000	0.899568 
423.000000	0.897212 
423.500000	0.868409 
424.000000	0.847651 
424.500000	0.848878 
425.000000	0.856462 
425.500000	0.849553 
426.000000	0.839068 
426.500000	0.831553 
427.000000	0.830553 
427.500000	0.828674 
428.000000	0.833969 
428.500000	0.836356 
429.000000	0.831401 
429.500000	0.818340 
430.000000	0.816371 
430.500000	0.826984 
431.000000	0.838749 
431.500000	0.841340 
432.000000	0.836075 
432.500000	0.836219 
433.000000	0.836765 
433.500000	0.831499 
434.000000	0.814265 
434.500000	0.802310 
435.000000	0.804439 
435.500000	0.811500 
436.000000	0.815871 
436.500000	0.821787 
437.000000	0.825469 
437.500000	0.817454 
438.000000	0.804265 
438.500000	0.811886 
439.000000	0.834643 
439.500000	0.841893 
440.000000	0.820189 
440.500000	0.798931 
441.000000	0.802931 
441.500000	0.816666 
442.000000	0.821189 
442.500000	0.804234 
443.000000	0.789598 
443.500000	0.795113 
444.000000	0.815553 
444.500000	0.828022 
445.000000	0.820954 
445.500000	0.814242 
446.000000	0.821409 
446.500000	0.833249 
447.000000	0.833977 
447.500000	0.831863 
448.000000	0.834469 
448.500000	0.832780 
449.000000	0.823333 
449.500000	0.815181 
450.000000	0.817113 
450.500000	0.828318 
451.000000	0.849454 
451.500000	0.874136 
452.000000	0.886128 
452.500000	0.878477 
453.000000	0.870515 
453.500000	0.872787 
454.000000	0.883151 
454.500000	0.894696 
455.000000	0.911303 
455.500000	0.919174 
456.000000	0.916909 
456.500000	0.912280 
457.000000	0.922204 
457.500000	0.936909 
458.000000	0.941606 
458.500000	0.934848 
459.000000	0.931946 
459.500000	0.927484 
460.000000	0.930318 
460.500000	0.934954 
461.000000	0.951560 
461.500000	0.964015 
462.000000	0.971318 
462.500000	0.970166 
463.000000	0.971280 
463.500000	0.965000 
464.000000	0.960280 
464.500000	0.970977 
465.000000	0.985969 
465.500000	1.006204 
466.000000	1.028181 
466.500000	1.062196 
467.000000	1.085681 
467.500000	1.102280 
468.000000	1.124250 
468.500000	1.157765 
469.000000	1.193348 
469.500000	1.222045 
470.000000	1.256386 
470.500000	1.283621 
471.000000	1.308477 
471.500000	1.323136 
472.000000	1.349439 
472.500000	1.376151 
473.000000	1.408401 
473.500000	1.433712 
474.000000	1.461068 
474.500000	1.481666 
475.000000	1.496818 
475.500000	1.497795 
476.000000	1.495931 
476.500000	1.502227 
477.000000	1.512643 
477.500000	1.526310 
478.000000	1.548212 
478.500000	1.578045 
479.000000	1.597666 
479.500000	1.601931 
480.000000	1.588000 

