PE FL                   SPECTRUM    ASCII       PEDS        1.60        
  -1
01#171.SP
02/03/17
05:06:47.00
02/03/17
05:10:58.00


600.000000
1









LS55
365.00
2.50
5.00
SCAN
1
20
100
100
0
50
0
1
0
1
7
ON
640 370 
1 0 0
#HDR
-1
-1
#GR
NM

0.00002384185791015625
0.0
400.000000
0.500000
401
8
7.518866
2.239733
#DATA
400.000000	3.165000 
400.500000	3.311800 
401.000000	3.246466 
401.500000	3.198533 
402.000000	3.340533 
402.500000	3.563933 
403.000000	3.705333 
403.500000	3.795533 
404.000000	3.894466 
404.500000	3.846666 
405.000000	3.781533 
405.500000	3.923133 
406.000000	3.928400 
406.500000	3.820933 
407.000000	3.947866 
407.500000	4.164266 
408.000000	4.255066 
408.500000	4.186000 
409.000000	4.230600 
409.500000	4.406866 
410.000000	4.455066 
410.500000	4.481666 
411.000000	4.690600 
411.500000	4.878066 
412.000000	4.881666 
412.500000	4.843466 
413.000000	5.002333 
413.500000	5.202066 
414.000000	5.144800 
414.500000	5.035266 
415.000000	5.093666 
415.500000	5.162933 
416.000000	5.175733 
416.500000	5.265466 
417.000000	5.465333 
417.500000	5.706466 
418.000000	5.721066 
418.500000	5.627666 
419.000000	5.678266 
419.500000	5.619333 
420.000000	5.421400 
420.500000	5.497333 
421.000000	5.781666 
421.500000	5.963866 
422.000000	6.049399 
422.500000	6.095866 
423.000000	6.075799 
423.500000	6.103599 
424.000000	6.098733 
424.500000	6.179933 
425.000000	6.474333 
425.500000	6.612800 
426.000000	6.489066 
426.500000	6.445533 
427.000000	6.607466 
427.500000	6.692000 
428.000000	6.615333 
428.500000	6.510466 
429.000000	6.490666 
429.500000	6.674266 
430.000000	6.879066 
430.500000	6.859000 
431.000000	6.829199 
431.500000	6.881133 
432.000000	6.884799 
432.500000	6.754933 
433.000000	6.740333 
433.500000	6.910333 
434.000000	7.103200 
434.500000	7.115733 
435.000000	6.996733 
435.500000	7.091733 
436.000000	7.310000 
436.500000	7.319600 
437.000000	7.229666 
437.500000	7.279733 
438.000000	7.327466 
438.500000	7.329066 
439.000000	7.393333 
439.500000	7.404066 
440.000000	7.416666 
440.500000	7.518866 
441.000000	7.498133 
441.500000	7.378399 
442.000000	7.298799 
442.500000	7.336733 
443.000000	7.397066 
443.500000	7.433999 
444.000000	7.401199 
444.500000	7.162133 
445.000000	6.864733 
445.500000	6.845333 
446.000000	7.120266 
446.500000	7.437666 
447.000000	7.429066 
447.500000	7.301733 
448.000000	7.311266 
448.500000	7.282800 
449.000000	7.278533 
449.500000	7.375733 
450.000000	7.282200 
450.500000	7.057266 
451.000000	7.053666 
451.500000	7.258400 
452.000000	7.127133 
452.500000	6.900733 
453.000000	7.037533 
453.500000	7.182866 
454.000000	7.001000 
454.500000	6.738266 
455.000000	6.749199 
455.500000	6.959266 
456.000000	6.964333 
456.500000	6.794533 
457.000000	6.639266 
457.500000	6.578466 
458.000000	6.605866 
458.500000	6.639133 
459.000000	6.535333 
459.500000	6.465800 
460.000000	6.579133 
460.500000	6.621200 
461.000000	6.437200 
461.500000	6.299600 
462.000000	6.346200 
462.500000	6.454199 
463.000000	6.539933 
463.500000	6.553933 
464.000000	6.448866 
464.500000	6.323333 
465.000000	6.266066 
465.500000	6.263466 
466.000000	6.193466 
466.500000	6.109066 
467.000000	6.210333 
467.500000	6.291266 
468.000000	6.261733 
468.500000	6.125333 
469.000000	5.942866 
469.500000	5.893133 
470.000000	5.955133 
470.500000	5.997733 
471.000000	6.066999 
471.500000	6.044066 
472.000000	6.096266 
472.500000	6.269066 
473.000000	6.241800 
473.500000	6.129733 
474.000000	6.228200 
474.500000	6.220733 
475.000000	6.009666 
475.500000	5.930866 
476.000000	5.926600 
476.500000	5.915933 
477.000000	5.984999 
477.500000	5.943599 
478.000000	5.760266 
478.500000	5.589133 
479.000000	5.549466 
479.500000	5.715933 
480.000000	5.873133 
480.500000	5.847866 
481.000000	5.846000 
481.500000	5.934866 
482.000000	5.821866 
482.500000	5.631933 
483.000000	5.714199 
483.500000	5.904799 
484.000000	6.014933 
484.500000	5.961333 
485.000000	5.791066 
485.500000	5.779733 
486.000000	5.857600 
486.500000	5.772133 
487.000000	5.707466 
487.500000	5.754733 
488.000000	5.728933 
488.500000	5.694866 
489.000000	5.641666 
489.500000	5.558200 
490.000000	5.643400 
490.500000	5.699266 
491.000000	5.688333 
491.500000	5.681333 
492.000000	5.624599 
492.500000	5.587733 
493.000000	5.507866 
493.500000	5.392266 
494.000000	5.360533 
494.500000	5.335066 
495.000000	5.344799 
495.500000	5.276200 
496.000000	5.186866 
496.500000	5.269266 
497.000000	5.422733 
497.500000	5.410200 
498.000000	5.301866 
498.500000	5.219466 
499.000000	5.132933 
499.500000	5.148666 
500.000000	5.277600 
500.500000	5.227066 
501.000000	5.030133 
501.500000	4.986466 
502.000000	5.004666 
502.500000	4.851000 
503.000000	4.701400 
503.500000	4.858733 
504.000000	5.030733 
504.500000	4.935866 
505.000000	4.788733 
505.500000	4.814800 
506.000000	4.878533 
506.500000	4.896400 
507.000000	4.838800 
507.500000	4.766200 
508.000000	4.876533 
508.500000	4.977666 
509.000000	4.827533 
509.500000	4.693533 
510.000000	4.662800 
510.500000	4.682133 
511.000000	4.800000 
511.500000	4.857600 
512.000000	4.753533 
512.500000	4.669400 
513.000000	4.648666 
513.500000	4.546066 
514.000000	4.432066 
514.500000	4.382866 
515.000000	4.345466 
515.500000	4.413133 
516.000000	4.506666 
516.500000	4.564400 
517.000000	4.541866 
517.500000	4.480066 
518.000000	4.518066 
518.500000	4.447333 
519.000000	4.325533 
519.500000	4.415999 
520.000000	4.405800 
520.500000	4.359600 
521.000000	4.427866 
521.500000	4.373733 
522.000000	4.255733 
522.500000	4.235200 
523.000000	4.278600 
523.500000	4.256800 
524.000000	4.183466 
524.500000	4.244866 
525.000000	4.244200 
525.500000	4.122266 
526.000000	4.116600 
526.500000	4.143466 
527.000000	4.144733 
527.500000	4.153533 
528.000000	4.126999 
528.500000	4.113933 
529.000000	4.114800 
529.500000	4.140400 
530.000000	4.254866 
530.500000	4.228600 
531.000000	4.002999 
531.500000	3.926866 
532.000000	4.060133 
532.500000	4.137933 
533.000000	4.132933 
533.500000	4.109933 
534.000000	4.056666 
534.500000	4.015133 
535.000000	3.997400 
535.500000	3.929400 
536.000000	3.830066 
536.500000	3.788000 
537.000000	3.811866 
537.500000	3.848333 
538.000000	3.797600 
538.500000	3.707466 
539.000000	3.718800 
539.500000	3.782666 
540.000000	3.762533 
540.500000	3.692266 
541.000000	3.668466 
541.500000	3.772533 
542.000000	3.786533 
542.500000	3.666466 
543.000000	3.641666 
543.500000	3.671933 
544.000000	3.722666 
544.500000	3.777466 
545.000000	3.654733 
545.500000	3.602400 
546.000000	3.676866 
546.500000	3.609066 
547.000000	3.527066 
547.500000	3.615533 
548.000000	3.652466 
548.500000	3.552133 
549.000000	3.528800 
549.500000	3.533800 
550.000000	3.538266 
550.500000	3.652866 
551.000000	3.686933 
551.500000	3.530800 
552.000000	3.394866 
552.500000	3.450266 
553.000000	3.606399 
553.500000	3.523533 
554.000000	3.368666 
554.500000	3.417000 
555.000000	3.451333 
555.500000	3.361266 
556.000000	3.294866 
556.500000	3.291533 
557.000000	3.315866 
557.500000	3.260333 
558.000000	3.184600 
558.500000	3.280933 
559.000000	3.417000 
559.500000	3.307133 
560.000000	3.145933 
560.500000	3.137133 
561.000000	3.150933 
561.500000	3.155733 
562.000000	3.163800 
562.500000	3.248600 
563.000000	3.350400 
563.500000	3.146333 
564.000000	2.932666 
564.500000	3.057000 
565.000000	3.152466 
565.500000	3.087066 
566.000000	3.071133 
566.500000	3.155066 
567.000000	3.225800 
567.500000	3.154866 
568.000000	3.000400 
568.500000	2.908666 
569.000000	2.897733 
569.500000	2.950266 
570.000000	3.026866 
570.500000	3.092000 
571.000000	3.112533 
571.500000	3.067466 
572.000000	2.992800 
572.500000	2.975200 
573.000000	2.951533 
573.500000	2.883666 
574.000000	2.820133 
574.500000	2.866733 
575.000000	2.868866 
575.500000	2.702400 
576.000000	2.723999 
576.500000	2.906133 
577.000000	2.887600 
577.500000	2.894066 
578.000000	2.894266 
578.500000	2.710733 
579.000000	2.627800 
579.500000	2.797466 
580.000000	2.894333 
580.500000	2.801866 
581.000000	2.742666 
581.500000	2.743733 
582.000000	2.692200 
582.500000	2.656733 
583.000000	2.613733 
583.500000	2.511800 
584.000000	2.481333 
584.500000	2.547933 
585.000000	2.600200 
585.500000	2.625466 
586.000000	2.634800 
586.500000	2.637000 
587.000000	2.653533 
587.500000	2.654733 
588.000000	2.706800 
588.500000	2.721666 
589.000000	2.654400 
589.500000	2.570933 
590.000000	2.504133 
590.500000	2.551000 
591.000000	2.665133 
591.500000	2.632733 
592.000000	2.512800 
592.500000	2.464400 
593.000000	2.450933 
593.500000	2.444733 
594.000000	2.449000 
594.500000	2.403666 
595.000000	2.364066 
595.500000	2.402133 
596.000000	2.447000 
596.500000	2.405000 
597.000000	2.323533 
597.500000	2.337533 
598.000000	2.332200 
598.500000	2.240666 
599.000000	2.239733 
599.500000	2.416200 
600.000000	2.770000 

