PE FL                   SPECTRUM    ASCII       PEDS        1.60        
  -1
01#160.SP
02/03/17
04:15:02.00
02/03/17
04:17:29.00


550.000000
1









LS55
310.00
5.00
5.00
SCAN
1
20
100
100
0
100
0
1
0
1
7
ON
530 300 
1 0 0
#HDR
-1
-1
#GR
NM

0.00002384185791015625
0.0
320.000000
0.500000
461
8
0.048712
-0.000522
#DATA
320.000000	0.032999  
320.500000	0.031598  
321.000000	0.026022  
321.500000	0.019916  
322.000000	0.017886  
322.500000	0.018166  
323.000000	0.016318  
323.500000	0.013833  
324.000000	0.011386  
324.500000	0.008174  
325.000000	0.004704  
325.500000	0.005159  
326.000000	0.008227  
326.500000	0.009424  
327.000000	0.006659  
327.500000	0.005590  
328.000000	0.006280  
328.500000	0.006212  
329.000000	0.003136  
329.500000	0.001378  
330.000000	0.002189  
330.500000	0.003901  
331.000000	0.003992  
331.500000	0.003257  
332.000000	0.002356  
332.500000	0.002545  
333.000000	0.002757  
333.500000	0.003045  
334.000000	0.002250  
334.500000	0.001727  
335.000000	0.001704  
335.500000	0.002212  
336.000000	0.001643  
336.500000	0.000689  
337.000000	-0.000045 
337.500000	-0.000121 
338.000000	0.000000  
338.500000	0.000000  
339.000000	0.000000  
339.500000	-0.000060 
340.000000	-0.000053 
340.500000	0.000409  
341.000000	0.000984  
341.500000	0.001151  
342.000000	0.000613  
342.500000	0.000015  
343.000000	-0.000174 
343.500000	0.000409  
344.000000	0.000984  
344.500000	0.001151  
345.000000	0.000613  
345.500000	0.000075  
346.000000	-0.000121 
346.500000	0.000000  
347.000000	0.000000  
347.500000	0.000000  
348.000000	0.000000  
348.500000	0.000000  
349.000000	0.000000  
349.500000	0.000000  
350.000000	0.000000  
350.500000	-0.000121 
351.000000	-0.000348 
351.500000	0.001030  
352.000000	0.002946  
352.500000	0.004416  
353.000000	0.003590  
353.500000	0.002212  
354.000000	0.001886  
354.500000	0.004295  
355.000000	0.006196  
355.500000	0.005590  
356.000000	0.002439  
356.500000	0.000946  
357.000000	0.001757  
357.500000	0.002742  
358.000000	0.001500  
358.500000	0.000219  
359.000000	-0.000303 
359.500000	0.000000  
360.000000	0.000000  
360.500000	0.000000  
361.000000	-0.000060 
361.500000	-0.000113 
362.000000	0.000295  
362.500000	0.001340  
363.000000	0.002545  
363.500000	0.002689  
364.000000	0.001606  
364.500000	0.000696  
365.000000	0.002181  
365.500000	0.004666  
366.000000	0.005492  
366.500000	0.003340  
367.000000	0.000727  
367.500000	-0.000522 
368.000000	0.000121  
368.500000	0.001871  
369.000000	0.003333  
369.500000	0.003303  
370.000000	0.001984  
370.500000	0.001083  
371.000000	0.000848  
371.500000	0.000613  
372.000000	-0.000045 
372.500000	-0.000348 
373.000000	0.000833  
373.500000	0.002651  
374.000000	0.003606  
374.500000	0.002484  
375.000000	0.001719  
375.500000	0.002015  
376.000000	0.002621  
376.500000	0.001500  
377.000000	0.000219  
377.500000	-0.000303 
378.000000	0.000000  
378.500000	0.000000  
379.000000	-0.000060 
379.500000	-0.000113 
380.000000	0.000113  
380.500000	0.000878  
381.000000	0.003628  
381.500000	0.007492  
382.000000	0.009749  
382.500000	0.007780  
383.000000	0.003931  
383.500000	0.001174  
384.000000	0.000977  
384.500000	0.001363  
385.000000	0.002939  
385.500000	0.006893  
386.000000	0.011159  
386.500000	0.011734  
387.000000	0.007734  
387.500000	0.003037  
388.000000	0.000386  
388.500000	0.001969  
389.000000	0.005840  
389.500000	0.009727  
390.000000	0.011939  
390.500000	0.014219  
391.000000	0.019537  
391.500000	0.022106  
392.000000	0.020196  
392.500000	0.013787  
393.000000	0.011378  
393.500000	0.009136  
394.000000	0.009553  
394.500000	0.012060  
395.000000	0.016939  
395.500000	0.015856  
396.000000	0.011219  
396.500000	0.009151  
397.000000	0.012810  
397.500000	0.015818  
398.000000	0.017363  
398.500000	0.018598  
399.000000	0.021037  
399.500000	0.020098  
400.000000	0.019098  
400.500000	0.016643  
401.000000	0.013681  
401.500000	0.011045  
402.000000	0.013674  
402.500000	0.020128  
403.000000	0.024878  
403.500000	0.025750  
404.000000	0.024825  
404.500000	0.026128  
405.000000	0.026674  
405.500000	0.026106  
406.000000	0.024340  
406.500000	0.026856  
407.000000	0.030681  
407.500000	0.033969  
408.000000	0.029568  
408.500000	0.020060  
409.000000	0.014795  
409.500000	0.020818  
410.000000	0.028272  
410.500000	0.027401  
411.000000	0.020992  
411.500000	0.020356  
412.000000	0.026037  
412.500000	0.025621  
413.000000	0.021424  
413.500000	0.021318  
414.000000	0.032196  
414.500000	0.041969  
415.000000	0.042333  
415.500000	0.032257  
416.000000	0.029545  
416.500000	0.031598  
417.000000	0.034060  
417.500000	0.030931  
418.000000	0.031674  
418.500000	0.036363  
419.000000	0.040318  
419.500000	0.038848  
420.000000	0.038446  
420.500000	0.041454  
421.000000	0.047015  
421.500000	0.048712  
422.000000	0.042303  
422.500000	0.034984  
423.000000	0.035962  
423.500000	0.039727  
424.000000	0.042984  
424.500000	0.040219  
425.000000	0.040522  
425.500000	0.038659  
426.000000	0.036446  
426.500000	0.029909  
427.000000	0.033196  
427.500000	0.038189  
428.000000	0.041500  
428.500000	0.036219  
429.000000	0.032045  
429.500000	0.035015  
430.000000	0.038613  
430.500000	0.036507  
431.000000	0.029340  
431.500000	0.024507  
432.000000	0.022515  
432.500000	0.029007  
433.000000	0.037151  
433.500000	0.039310  
434.000000	0.033212  
434.500000	0.028681  
435.000000	0.029401  
435.500000	0.027977  
436.000000	0.020848  
436.500000	0.014015  
437.000000	0.016689  
437.500000	0.024856  
438.000000	0.033795  
438.500000	0.034166  
439.000000	0.030416  
439.500000	0.026522  
440.000000	0.027348  
440.500000	0.028181  
441.000000	0.031575  
441.500000	0.038212  
442.000000	0.041712  
442.500000	0.036121  
443.000000	0.027659  
443.500000	0.027143  
444.000000	0.032128  
444.500000	0.033318  
445.000000	0.027924  
445.500000	0.020939  
446.000000	0.022060  
446.500000	0.026719  
447.000000	0.034272  
447.500000	0.034568  
448.000000	0.031181  
448.500000	0.023060  
449.000000	0.021553  
449.500000	0.020992  
450.000000	0.020893  
450.500000	0.014575  
451.000000	0.012439  
451.500000	0.016136  
452.000000	0.021310  
452.500000	0.021037  
453.000000	0.017939  
453.500000	0.014674  
454.000000	0.011696  
454.500000	0.010727  
455.000000	0.013128  
455.500000	0.016886  
456.000000	0.016083  
456.500000	0.011787  
457.000000	0.008969  
457.500000	0.010234  
458.000000	0.013227  
458.500000	0.014045  
459.000000	0.013083  
459.500000	0.011484  
460.000000	0.009621  
460.500000	0.006674  
461.000000	0.004136  
461.500000	0.004159  
462.000000	0.005909  
462.500000	0.007992  
463.000000	0.008401  
463.500000	0.008825  
464.000000	0.007772  
464.500000	0.005613  
465.000000	0.005499  
465.500000	0.009568  
466.000000	0.013113  
466.500000	0.010325  
467.000000	0.005378  
467.500000	0.004530  
468.000000	0.007515  
468.500000	0.008530  
469.000000	0.008977  
469.500000	0.010704  
470.000000	0.011780  
470.500000	0.008659  
471.000000	0.005363  
471.500000	0.004651  
472.000000	0.005143  
472.500000	0.002992  
473.000000	0.001500  
473.500000	0.002136  
474.000000	0.004431  
474.500000	0.004840  
475.000000	0.003863  
475.500000	0.002030  
476.000000	0.001840  
476.500000	0.002568  
477.000000	0.005401  
477.500000	0.007196  
478.000000	0.008136  
478.500000	0.006575  
479.000000	0.004659  
479.500000	0.002000  
480.000000	0.000545  
480.500000	0.000537  
481.000000	0.001954  
481.500000	0.003628  
482.000000	0.003681  
482.500000	0.002666  
483.000000	0.001212  
483.500000	0.002984  
484.000000	0.005553  
484.500000	0.006946  
485.000000	0.004212  
485.500000	0.001371  
486.000000	0.000833  
486.500000	0.002318  
487.000000	0.002621  
487.500000	0.001500  
488.000000	0.000219  
488.500000	-0.000363 
489.000000	-0.000174 
489.500000	0.000181  
490.000000	0.001818  
490.500000	0.003681  
491.000000	0.004113  
491.500000	0.003318  
492.000000	0.002969  
492.500000	0.005280  
493.000000	0.007234  
493.500000	0.007166  
494.000000	0.003909  
494.500000	0.001371  
495.000000	0.000712  
495.500000	0.002151  
496.000000	0.003446  
496.500000	0.003689  
497.000000	0.003310  
497.500000	0.002128  
498.000000	0.001780  
498.500000	0.001295  
499.000000	0.001166  
499.500000	0.000439  
500.000000	0.000484  
500.500000	0.000863  
501.000000	0.001030  
501.500000	0.000446  
502.000000	0.000901  
502.500000	0.002068  
503.000000	0.003151  
503.500000	0.002484  
504.000000	0.001371  
504.500000	0.000250  
505.000000	-0.000037 
505.500000	0.000234  
506.000000	0.001393  
506.500000	0.002136  
507.000000	0.001643  
507.500000	0.000522  
508.000000	0.000780  
508.500000	0.002007  
509.000000	0.002977  
509.500000	0.002727  
510.000000	0.003181  
510.500000	0.003651  
511.000000	0.003840  
511.500000	0.002439  
512.000000	0.001250  
512.500000	0.000250  
513.000000	0.000022  
513.500000	0.000287  
514.000000	0.000984  
514.500000	0.001151  
515.000000	0.000613  
515.500000	0.000075  
516.000000	-0.000121 
516.500000	-0.000060 
517.000000	-0.000053 
517.500000	0.000409  
518.000000	0.000924  
518.500000	0.001098  
519.000000	0.001022  
519.500000	0.001060  
520.000000	0.001030  
520.500000	0.000613  
521.000000	0.000015  
521.500000	-0.000234 
522.000000	0.000356  
522.500000	0.001272  
523.000000	0.001969  
523.500000	0.002651  
524.000000	0.002931  
524.500000	0.002696  
525.000000	0.001378  
525.500000	0.000219  
526.000000	-0.000303 
526.500000	0.000000  
527.000000	-0.000060 
527.500000	-0.000053 
528.000000	0.000409  
528.500000	0.000984  
529.000000	0.001151  
529.500000	0.000492  
530.000000	-0.000151 
530.500000	0.000712  
531.000000	0.002651  
531.500000	0.003727  
532.000000	0.002651  
532.500000	0.000833  
533.000000	-0.000227 
533.500000	-0.000121 
534.000000	0.000000  
534.500000	0.000000  
535.000000	0.000000  
535.500000	0.000000  
536.000000	-0.000060 
536.500000	-0.000053 
537.000000	0.000409  
537.500000	0.000984  
538.000000	0.001151  
538.500000	0.000613  
539.000000	0.000075  
539.500000	-0.000181 
540.000000	-0.000053 
540.500000	0.000409  
541.000000	0.000924  
541.500000	0.001098  
542.000000	0.001022  
542.500000	0.000999  
543.000000	0.000977  
543.500000	0.001022  
544.000000	0.001060  
544.500000	0.001030  
545.000000	0.000613  
545.500000	0.000075  
546.000000	-0.000121 
546.500000	0.000000  
547.000000	0.000000  
547.500000	0.000000  
548.000000	0.000000  
548.500000	0.000000  
549.000000	0.000000  
549.500000	0.000000  
550.000000	0.000000  

