PE FL                   SPECTRUM    ASCII       PEDS        1.60        
  -1
01#166.SP
02/03/17
04:35:45.00
02/03/17
04:39:29.00


420.000000
1









LS55
450.00
2.50
2.50
SCAN
1
20
100
100
0
50
0
0
0
1
7
ON
600 580 
1 0 0
#HDR
-1
-1
#GR
NM

0.00002384185791015625
0.0
250.000000
0.500000
341
8
1.169000
-0.005000
#DATA
250.000000	0.000000  
250.500000	0.008000  
251.000000	0.044000  
251.500000	0.067000  
252.000000	0.040000  
252.500000	0.032000  
253.000000	0.028000  
253.500000	0.108000  
254.000000	0.008999  
254.500000	0.054000  
255.000000	0.070000  
255.500000	0.000000  
256.000000	0.045000  
256.500000	0.183000  
257.000000	0.031000  
257.500000	0.023000  
258.000000	0.021000  
258.500000	0.107000  
259.000000	0.113000  
259.500000	0.067000  
260.000000	0.113000  
260.500000	0.091000  
261.000000	0.070999  
261.500000	0.060000  
262.000000	0.000000  
262.500000	0.024000  
263.000000	0.101000  
263.500000	0.053000  
264.000000	0.105000  
264.500000	0.059000  
265.000000	0.015000  
265.500000	0.070000  
266.000000	0.063000  
266.500000	0.050000  
267.000000	0.106000  
267.500000	0.106000  
268.000000	0.105000  
268.500000	0.098000  
269.000000	0.062000  
269.500000	0.033000  
270.000000	0.053000  
270.500000	0.144000  
271.000000	0.159000  
271.500000	0.044000  
272.000000	0.087999  
272.500000	0.056000  
273.000000	0.038000  
273.500000	0.057000  
274.000000	0.039000  
274.500000	0.063000  
275.000000	0.056000  
275.500000	0.056000  
276.000000	0.142000  
276.500000	0.085000  
277.000000	0.067000  
277.500000	0.120000  
278.000000	0.218000  
278.500000	0.139000  
279.000000	0.085999  
279.500000	-0.005000 
280.000000	0.078000  
280.500000	0.066000  
281.000000	0.113000  
281.500000	0.137000  
282.000000	0.138000  
282.500000	0.080000  
283.000000	0.086999  
283.500000	0.061000  
284.000000	0.106000  
284.500000	0.069000  
285.000000	0.074000  
285.500000	0.111000  
286.000000	0.162000  
286.500000	0.060000  
287.000000	0.042000  
287.500000	0.097000  
288.000000	0.023000  
288.500000	0.046000  
289.000000	0.119000  
289.500000	0.051000  
290.000000	0.102000  
290.500000	0.232000  
291.000000	0.218000  
291.500000	0.148000  
292.000000	0.078000  
292.500000	0.032000  
293.000000	0.077000  
293.500000	0.124000  
294.000000	0.173000  
294.500000	0.152000  
295.000000	0.081000  
295.500000	0.087999  
296.000000	0.110000  
296.500000	0.085999  
297.000000	0.105000  
297.500000	0.100000  
298.000000	0.241000  
298.500000	0.150000  
299.000000	0.106000  
299.500000	0.155000  
300.000000	0.290000  
300.500000	0.326000  
301.000000	0.418000  
301.500000	0.447000  
302.000000	0.390000  
302.500000	0.442000  
303.000000	0.500000  
303.500000	0.629000  
304.000000	0.706000  
304.500000	0.717000  
305.000000	0.761000  
305.500000	0.782000  
306.000000	0.689999  
306.500000	0.703000  
307.000000	0.739000  
307.500000	0.866000  
308.000000	0.730000  
308.500000	0.787000  
309.000000	0.866000  
309.500000	0.795000  
310.000000	0.744000  
310.500000	0.835000  
311.000000	0.822000  
311.500000	0.850000  
312.000000	0.764000  
312.500000	0.771000  
313.000000	0.673000  
313.500000	0.725000  
314.000000	0.749000  
314.500000	0.911000  
315.000000	0.650000  
315.500000	0.578000  
316.000000	0.639000  
316.500000	0.786000  
317.000000	0.614000  
317.500000	0.565999  
318.000000	0.547000  
318.500000	0.502000  
319.000000	0.592000  
319.500000	0.499000  
320.000000	0.582000  
320.500000	0.688999  
321.000000	0.496000  
321.500000	0.460000  
322.000000	0.398000  
322.500000	0.459000  
323.000000	0.521000  
323.500000	0.452000  
324.000000	0.428000  
324.500000	0.313000  
325.000000	0.390000  
325.500000	0.376000  
326.000000	0.400000  
326.500000	0.510000  
327.000000	0.534000  
327.500000	0.411000  
328.000000	0.404000  
328.500000	0.424000  
329.000000	0.596000  
329.500000	0.503000  
330.000000	0.407000  
330.500000	0.400000  
331.000000	0.416000  
331.500000	0.582000  
332.000000	0.549000  
332.500000	0.528000  
333.000000	0.550000  
333.500000	0.549000  
334.000000	0.590000  
334.500000	0.538000  
335.000000	0.476000  
335.500000	0.420000  
336.000000	0.507000  
336.500000	0.501000  
337.000000	0.532000  
337.500000	0.545000  
338.000000	0.582000  
338.500000	0.680000  
339.000000	0.502000  
339.500000	0.564999  
340.000000	0.640000  
340.500000	0.590000  
341.000000	0.677000  
341.500000	0.762000  
342.000000	0.737000  
342.500000	0.522000  
343.000000	0.545000  
343.500000	0.692999  
344.000000	0.717000  
344.500000	0.737000  
345.000000	0.652000  
345.500000	0.644000  
346.000000	0.712000  
346.500000	0.729000  
347.000000	0.799000  
347.500000	0.772000  
348.000000	0.603000  
348.500000	0.631000  
349.000000	0.881000  
349.500000	0.807000  
350.000000	0.756000  
350.500000	0.711000  
351.000000	0.774000  
351.500000	0.937000  
352.000000	0.866000  
352.500000	0.980000  
353.000000	0.886000  
353.500000	0.834000  
354.000000	0.847000  
354.500000	0.836000  
355.000000	0.789000  
355.500000	0.824000  
356.000000	0.867000  
356.500000	0.947000  
357.000000	1.000000  
357.500000	0.856000  
358.000000	0.942999  
358.500000	0.952000  
359.000000	0.915000  
359.500000	1.016000  
360.000000	0.934000  
360.500000	0.972000  
361.000000	1.109000  
361.500000	1.066000  
362.000000	0.982000  
362.500000	1.091000  
363.000000	0.917000  
363.500000	0.950000  
364.000000	1.148000  
364.500000	1.022000  
365.000000	1.080000  
365.500000	0.928000  
366.000000	0.949000  
366.500000	1.052000  
367.000000	0.945000  
367.500000	1.070000  
368.000000	1.085000  
368.500000	0.981000  
369.000000	0.991000  
369.500000	1.100000  
370.000000	1.099000  
370.500000	0.968000  
371.000000	0.882000  
371.500000	1.081000  
372.000000	1.052000  
372.500000	1.031000  
373.000000	1.169000  
373.500000	0.975000  
374.000000	0.990000  
374.500000	1.059000  
375.000000	1.011000  
375.500000	0.946000  
376.000000	0.950000  
376.500000	0.930000  
377.000000	0.934000  
377.500000	0.992000  
378.000000	0.971000  
378.500000	1.101000  
379.000000	1.075000  
379.500000	1.020000  
380.000000	0.913000  
380.500000	0.880000  
381.000000	0.986000  
381.500000	0.915000  
382.000000	0.895000  
382.500000	0.911000  
383.000000	0.866000  
383.500000	0.768000  
384.000000	0.858000  
384.500000	0.959000  
385.000000	0.865000  
385.500000	0.785000  
386.000000	0.917000  
386.500000	0.848000  
387.000000	0.931000  
387.500000	0.809000  
388.000000	0.745000  
388.500000	0.796000  
389.000000	0.679000  
389.500000	0.684000  
390.000000	0.711000  
390.500000	0.869000  
391.000000	0.688999  
391.500000	0.828000  
392.000000	0.792000  
392.500000	0.687000  
393.000000	0.824000  
393.500000	0.723000  
394.000000	0.559000  
394.500000	0.768000  
395.000000	0.677000  
395.500000	0.721000  
396.000000	0.673000  
396.500000	0.590000  
397.000000	0.630000  
397.500000	0.624000  
398.000000	0.726000  
398.500000	0.813999  
399.000000	0.701000  
399.500000	0.668000  
400.000000	0.483000  
400.500000	0.622000  
401.000000	0.583000  
401.500000	0.627000  
402.000000	0.491000  
402.500000	0.506000  
403.000000	0.491000  
403.500000	0.517000  
404.000000	0.461000  
404.500000	0.383000  
405.000000	0.565999  
405.500000	0.531000  
406.000000	0.602000  
406.500000	0.543000  
407.000000	0.486000  
407.500000	0.419000  
408.000000	0.346000  
408.500000	0.403000  
409.000000	0.470000  
409.500000	0.367000  
410.000000	0.334000  
410.500000	0.341000  
411.000000	0.287000  
411.500000	0.353000  
412.000000	0.390000  
412.500000	0.391000  
413.000000	0.423000  
413.500000	0.332000  
414.000000	0.296000  
414.500000	0.271000  
415.000000	0.314000  
415.500000	0.422000  
416.000000	0.352000  
416.500000	0.394000  
417.000000	0.386000  
417.500000	0.414000  
418.000000	0.412000  
418.500000	0.495000  
419.000000	0.530000  
419.500000	0.421000  
420.000000	0.429000  

