PE FL                   SPECTRUM    ASCII       PEDS        1.60        
  -1
01#169.SP
02/03/18
04:01:07.00
02/03/18
04:03:54.00


580.000000
1









LS55
310.00
5.00
5.00
SCAN
1
20
100
100
0
100
0
1
0
1
7
ON
750 275 
1 0 0
#HDR
-1
-1
#GR
NM

0.00002384185791015625
0.0
330.000000
0.500000
501
8
143.003066
21.864000
#DATA
330.000000	47.896000  
330.500000	47.556133  
331.000000	47.556933  
331.500000	47.652333  
332.000000	47.721466  
332.500000	47.756600  
333.000000	47.733200  
333.500000	47.735199  
334.000000	47.745133  
334.500000	47.729200  
335.000000	47.749133  
335.500000	47.743066  
336.000000	47.731133  
336.500000	47.969200  
337.000000	48.096066  
337.500000	47.956533  
338.000000	48.046666  
338.500000	48.315133  
339.000000	48.316400  
339.500000	48.161866  
340.000000	48.091266  
340.500000	47.958200  
341.000000	47.727066  
341.500000	47.794466  
342.000000	47.895266  
342.500000	47.714533  
343.000000	47.569933  
343.500000	47.479200  
344.000000	47.365533  
344.500000	47.219066  
345.000000	46.976333  
345.500000	46.818800  
346.000000	46.834933  
346.500000	46.855533  
347.000000	46.921066  
347.500000	47.038266  
348.000000	47.143000  
348.500000	47.145400  
349.000000	46.984666  
349.500000	46.896800  
350.000000	47.046266  
350.500000	47.238733  
351.000000	47.499733  
351.500000	47.728800  
352.000000	47.720266  
352.500000	47.712733  
353.000000	47.828933  
353.500000	47.939266  
354.000000	48.150933  
354.500000	48.410000  
355.000000	48.566933  
355.500000	48.727733  
356.000000	48.861066  
356.500000	48.979266  
357.000000	49.133399  
357.500000	49.191866  
358.000000	49.293200  
358.500000	49.354333  
359.000000	49.337133  
359.500000	49.521400  
360.000000	49.725733  
360.500000	49.749066  
361.000000	49.853866  
361.500000	50.031866  
362.000000	50.299400  
362.500000	50.539600  
363.000000	50.725866  
363.500000	50.911333  
364.000000	51.065400  
364.500000	51.227266  
365.000000	51.738800  
365.500000	52.364866  
366.000000	52.644466  
366.500000	52.799333  
367.000000	53.195600  
367.500000	53.735600  
368.000000	54.228533  
368.500000	54.764333  
369.000000	55.287800  
369.500000	55.727400  
370.000000	56.354200  
370.500000	57.087666  
371.000000	57.709266  
371.500000	58.489466  
372.000000	59.327866  
372.500000	60.059200  
373.000000	60.734066  
373.500000	61.522333  
374.000000	62.492733  
374.500000	63.560599  
375.000000	64.422466  
375.500000	64.988133  
376.000000	65.748266  
376.500000	67.020866  
377.000000	68.141666  
377.500000	68.955733  
378.000000	69.858000  
378.500000	70.684800  
379.000000	71.508466  
379.500000	72.539333  
380.000000	73.494333  
380.500000	74.349733  
381.000000	75.484733  
381.500000	76.835333  
382.000000	78.112733  
382.500000	79.240266  
383.000000	80.436533  
383.500000	81.826533  
384.000000	83.340200  
384.500000	84.581266  
385.000000	85.701533  
385.500000	86.999866  
386.000000	88.449799  
386.500000	90.101066  
387.000000	91.451066  
387.500000	92.547200  
388.000000	93.961266  
388.500000	95.597466  
389.000000	97.174733  
389.500000	98.599266  
390.000000	100.031133 
390.500000	101.589933 
391.000000	102.720666 
391.500000	103.897133 
392.000000	105.452933 
392.500000	106.887133 
393.000000	108.138533 
393.500000	109.570400 
394.000000	110.884200 
394.500000	112.112200 
395.000000	113.442800 
395.500000	114.791266 
396.000000	116.191800 
396.500000	117.579400 
397.000000	118.708933 
397.500000	119.795800 
398.000000	120.937133 
398.500000	121.993933 
399.000000	122.840200 
399.500000	124.015666 
400.000000	125.586866 
400.500000	126.636400 
401.000000	127.269200 
401.500000	128.256200 
402.000000	129.286466 
402.500000	130.171266 
403.000000	131.240133 
403.500000	132.026800 
404.000000	132.499000 
404.500000	133.211466 
405.000000	134.019200 
405.500000	134.755600 
406.000000	135.655000 
406.500000	136.353466 
407.000000	136.637466 
407.500000	136.918333 
408.000000	137.418666 
408.500000	138.074466 
409.000000	138.816666 
409.500000	139.402133 
410.000000	139.875066 
410.500000	140.375666 
411.000000	140.678133 
411.500000	140.688400 
412.000000	140.688866 
412.500000	141.170000 
413.000000	141.863000 
413.500000	142.221666 
414.000000	142.329800 
414.500000	142.515933 
415.000000	142.844933 
415.500000	143.003066 
416.000000	142.957733 
416.500000	142.802733 
417.000000	142.614933 
417.500000	142.520266 
418.000000	142.478466 
418.500000	142.307000 
419.000000	142.295466 
419.500000	142.298800 
420.000000	142.234733 
420.500000	142.204933 
421.000000	141.986666 
421.500000	141.427266 
422.000000	141.265133 
422.500000	141.124733 
423.000000	140.448666 
423.500000	140.119333 
424.000000	140.058333 
424.500000	139.369866 
425.000000	138.456533 
425.500000	137.605666 
426.000000	136.945800 
426.500000	136.360866 
427.000000	135.638000 
427.500000	134.793600 
428.000000	134.145800 
428.500000	133.749733 
429.000000	132.984400 
429.500000	131.980000 
430.000000	131.498733 
430.500000	130.610933 
431.000000	129.517466 
431.500000	129.165733 
432.000000	128.865333 
432.500000	127.691666 
433.000000	126.543333 
433.500000	125.871666 
434.000000	124.928266 
434.500000	123.471733 
435.000000	122.336400 
435.500000	121.648533 
436.000000	120.940133 
436.500000	119.811133 
437.000000	118.822800 
437.500000	118.005066 
438.000000	117.034800 
438.500000	115.983800 
439.000000	114.851400 
439.500000	113.678266 
440.000000	112.474466 
440.500000	111.319266 
441.000000	110.324000 
441.500000	108.988733 
442.000000	107.848266 
442.500000	107.244666 
443.000000	106.395066 
443.500000	105.277666 
444.000000	104.044400 
444.500000	102.600133 
445.000000	101.242066 
445.500000	100.153266 
446.000000	99.491466  
446.500000	98.676333  
447.000000	97.490733  
447.500000	96.541466  
448.000000	95.522733  
448.500000	94.048466  
449.000000	92.781866  
449.500000	91.870333  
450.000000	91.022133  
450.500000	90.010866  
451.000000	88.700599  
451.500000	87.324000  
452.000000	86.089733  
452.500000	85.066533  
453.000000	84.167733  
453.500000	83.087599  
454.000000	81.877400  
454.500000	80.953666  
455.000000	80.108600  
455.500000	79.192666  
456.000000	78.366066  
456.500000	77.413866  
457.000000	76.228200  
457.500000	75.294266  
458.000000	74.575800  
458.500000	73.692733  
459.000000	72.755466  
459.500000	71.948266  
460.000000	71.089666  
460.500000	70.323200  
461.000000	69.661866  
461.500000	68.663133  
462.000000	67.553266  
462.500000	66.764399  
463.000000	65.986466  
463.500000	65.046133  
464.000000	64.349666  
464.500000	63.704999  
465.000000	62.834733  
465.500000	61.965066  
466.000000	61.217466  
466.500000	60.569400  
467.000000	60.067266  
467.500000	59.489466  
468.000000	58.661800  
468.500000	57.768600  
469.000000	57.054800  
469.500000	56.425933  
470.000000	55.820400  
470.500000	55.232133  
471.000000	54.674933  
471.500000	54.131533  
472.000000	53.566400  
472.500000	53.034133  
473.000000	52.480200  
473.500000	51.836000  
474.000000	51.399600  
474.500000	51.060466  
475.000000	50.404999  
475.500000	49.712466  
476.000000	49.222133  
476.500000	48.721733  
477.000000	48.336733  
477.500000	48.080600  
478.000000	47.545933  
478.500000	46.730933  
479.000000	46.197400  
479.500000	45.911733  
480.000000	45.641933  
480.500000	45.411600  
481.000000	45.163200  
481.500000	44.795333  
482.000000	44.365466  
482.500000	43.938800  
483.000000	43.798200  
483.500000	43.629000  
484.000000	43.227666  
484.500000	42.706133  
485.000000	42.336133  
485.500000	42.103866  
486.000000	41.893066  
486.500000	41.601600  
487.000000	41.163200  
487.500000	40.625200  
488.000000	40.268400  
488.500000	39.962999  
489.000000	39.576266  
489.500000	39.367000  
490.000000	39.126666  
490.500000	38.618000  
491.000000	38.271200  
491.500000	38.123066  
492.000000	37.862533  
492.500000	37.643933  
493.000000	37.500933  
493.500000	37.340266  
494.000000	37.121733  
494.500000	36.755000  
495.000000	36.303600  
495.500000	36.086000  
496.000000	36.090466  
496.500000	35.778666  
497.000000	35.235533  
497.500000	35.028933  
498.000000	35.082600  
498.500000	34.892466  
499.000000	34.456800  
499.500000	34.091400  
500.000000	33.904933  
500.500000	33.740533  
501.000000	33.605800  
501.500000	33.515266  
502.000000	33.312866  
502.500000	33.093400  
503.000000	32.961333  
503.500000	32.826266  
504.000000	32.728200  
504.500000	32.571200  
505.000000	32.220666  
505.500000	31.843933  
506.000000	31.661866  
506.500000	31.700466  
507.000000	31.609266  
507.500000	31.328399  
508.000000	31.138666  
508.500000	31.009466  
509.000000	30.844466  
509.500000	30.818866  
510.000000	30.743533  
510.500000	30.518600  
511.000000	30.330066  
511.500000	30.172466  
512.000000	30.000533  
512.500000	29.822933  
513.000000	29.612200  
513.500000	29.453466  
514.000000	29.290866  
514.500000	29.082400  
515.000000	28.886400  
515.500000	28.690733  
516.000000	28.705466  
516.500000	28.946533  
517.000000	28.941800  
517.500000	28.620200  
518.000000	28.348866  
518.500000	28.208400  
519.000000	28.216000  
519.500000	28.313666  
520.000000	28.275600  
520.500000	28.117333  
521.000000	27.912066  
521.500000	27.632333  
522.000000	27.349933  
522.500000	27.199200  
523.000000	27.220533  
523.500000	27.188533  
524.000000	26.898866  
524.500000	26.671933  
525.000000	26.669000  
525.500000	26.589933  
526.000000	26.464000  
526.500000	26.454266  
527.000000	26.282800  
527.500000	26.010666  
528.000000	25.996466  
528.500000	25.992733  
529.000000	25.799533  
529.500000	25.678600  
530.000000	25.730400  
530.500000	25.788266  
531.000000	25.717266  
531.500000	25.493800  
532.000000	25.353333  
532.500000	25.407666  
533.000000	25.423866  
533.500000	25.249133  
534.000000	25.124666  
534.500000	25.097400  
535.000000	25.062333  
535.500000	24.971400  
536.000000	24.790133  
536.500000	24.627000  
537.000000	24.515533  
537.500000	24.416333  
538.000000	24.398733  
538.500000	24.331933  
539.000000	24.215333  
539.500000	24.088600  
540.000000	24.005466  
540.500000	24.147200  
541.000000	24.239133  
541.500000	24.030400  
542.000000	23.729066  
542.500000	23.650866  
543.000000	23.798600  
543.500000	23.857733  
544.000000	23.729000  
544.500000	23.651000  
545.000000	23.552000  
545.500000	23.426066  
546.000000	23.317533  
546.500000	23.309600  
547.000000	23.265866  
547.500000	23.108066  
548.000000	23.019200  
548.500000	23.154600  
549.000000	23.263133  
549.500000	23.151733  
550.000000	23.024133  
550.500000	23.073533  
551.000000	23.105933  
551.500000	22.972666  
552.000000	22.802733  
552.500000	22.758733  
553.000000	22.747200  
553.500000	22.626933  
554.000000	22.661133  
554.500000	22.849800  
555.000000	22.951200  
555.500000	23.020200  
556.000000	22.980266  
556.500000	22.761200  
557.000000	22.624133  
557.500000	22.817200  
558.000000	22.909066  
558.500000	22.717333  
559.000000	22.641800  
559.500000	22.846866  
560.000000	22.937200  
560.500000	22.860333  
561.000000	22.808133  
561.500000	22.853066  
562.000000	22.922600  
562.500000	22.948266  
563.000000	22.795133  
563.500000	22.656533  
564.000000	22.631933  
564.500000	22.605333  
565.000000	22.476666  
565.500000	22.336466  
566.000000	22.364466  
566.500000	22.448200  
567.000000	22.366533  
567.500000	22.179000  
568.000000	22.156600  
568.500000	22.232733  
569.000000	22.122666  
569.500000	21.958800  
570.000000	22.020866  
570.500000	22.100666  
571.000000	22.028466  
571.500000	21.919466  
572.000000	21.969133  
572.500000	22.081200  
573.000000	22.026466  
573.500000	21.926400  
574.000000	21.926600  
574.500000	21.929533  
575.000000	21.956800  
575.500000	21.931533  
576.000000	21.970000  
576.500000	22.197133  
577.000000	22.253933  
577.500000	22.154600  
578.000000	22.164133  
578.500000	22.179600  
579.000000	22.149266  
579.500000	22.062066  
580.000000	21.864000  

