PE FL                   SPECTRUM    ASCII       PEDS        1.60        
  -1
01#171.SP
02/03/18
04:05:49.00
02/03/18
04:07:35.00


390.000000
1









LS55
415.00
5.00
5.00
SCAN
1
20
100
100
0
100
0
0
0
1
7
ON
415 256 
1 0 0
#HDR
-1
-1
#GR
NM

0.00002384185791015625
0.0
220.000000
0.500000
341
8
145.913704
15.705643
#DATA
220.000000	24.599000  
220.500000	25.060606  
221.000000	25.038303  
221.500000	24.485924  
222.000000	23.788500  
222.500000	23.196750  
223.000000	22.701674  
223.500000	22.267712  
224.000000	21.835053  
224.500000	21.300621  
225.000000	20.771992  
225.500000	20.225962  
226.000000	19.833234  
226.500000	19.604121  
227.000000	19.452969  
227.500000	19.207621  
228.000000	18.843098  
228.500000	18.501893  
229.000000	18.184636  
229.500000	17.988674  
230.000000	17.855984  
230.500000	17.932280  
231.000000	18.060371  
231.500000	18.255780  
232.000000	18.359946  
232.500000	18.508000  
233.000000	18.738409  
233.500000	19.096325  
234.000000	19.394378  
234.500000	19.545060  
235.000000	19.580818  
235.500000	19.524545  
236.000000	19.272492  
236.500000	18.987174  
237.000000	18.763181  
237.500000	18.506333  
238.000000	18.036924  
238.500000	17.517772  
239.000000	17.188409  
239.500000	17.031000  
240.000000	16.884416  
240.500000	16.653196  
241.000000	16.460037  
241.500000	16.350030  
242.000000	16.353931  
242.500000	16.352454  
243.000000	16.306969  
243.500000	16.228962  
244.000000	16.184189  
244.500000	16.145257  
245.000000	16.083469  
245.500000	15.997568  
246.000000	15.894393  
246.500000	15.791931  
247.000000	15.705643  
247.500000	15.711984  
248.000000	15.734719  
248.500000	15.848901  
249.000000	16.013909  
249.500000	16.307242  
250.000000	16.585287  
250.500000	16.859750  
251.000000	17.019621  
251.500000	17.224598  
252.000000	17.433090  
252.500000	17.720356  
253.000000	17.894628  
253.500000	18.003318  
254.000000	18.102113  
254.500000	18.371356  
255.000000	18.761045  
255.500000	19.096310  
256.000000	19.274984  
256.500000	19.217318  
257.000000	19.134492  
257.500000	19.069022  
258.000000	19.111515  
258.500000	19.114227  
259.000000	19.175075  
259.500000	19.168537  
260.000000	19.216575  
260.500000	19.305939  
261.000000	19.511318  
261.500000	19.707522  
262.000000	19.902492  
262.500000	20.119704  
263.000000	20.406280  
263.500000	20.729424  
264.000000	20.996939  
264.500000	21.254712  
265.000000	21.419393  
265.500000	21.532090  
266.000000	21.616462  
266.500000	21.766969  
267.000000	21.996795  
267.500000	22.198530  
268.000000	22.340606  
268.500000	22.341363  
269.000000	22.387022  
269.500000	22.429022  
270.000000	22.561719  
270.500000	22.637212  
271.000000	22.692303  
271.500000	22.710424  
272.000000	22.766909  
272.500000	22.896613  
273.000000	22.975431  
273.500000	23.052924  
274.000000	23.040954  
274.500000	23.001424  
275.000000	22.912022  
275.500000	22.939530  
276.000000	23.049765  
276.500000	23.123750  
277.000000	23.051712  
277.500000	22.933363  
278.000000	22.887977  
278.500000	22.839378  
279.000000	22.764204  
279.500000	22.730045  
280.000000	22.675909  
280.500000	22.540265  
281.000000	22.300727  
281.500000	22.142462  
282.000000	22.110848  
282.500000	22.134780  
283.000000	22.032750  
283.500000	21.828643  
284.000000	21.625598  
284.500000	21.530022  
285.000000	21.442590  
285.500000	21.322409  
286.000000	21.110621  
286.500000	20.903477  
287.000000	20.722598  
287.500000	20.682742  
288.000000	20.730924  
288.500000	20.831386  
289.000000	20.860265  
289.500000	20.821015  
290.000000	20.753189  
290.500000	20.724856  
291.000000	20.829310  
291.500000	21.012416  
292.000000	21.245530  
292.500000	21.533795  
293.000000	21.932363  
293.500000	22.386742  
294.000000	22.922939  
294.500000	23.529007  
295.000000	24.345628  
295.500000	25.488681  
296.000000	27.000651  
296.500000	28.859242  
297.000000	31.209810  
297.500000	34.181969  
298.000000	37.926999  
298.500000	42.230537  
299.000000	47.168954  
299.500000	52.962181  
300.000000	59.861848  
300.500000	67.379181  
301.000000	74.973181  
301.500000	82.428310  
302.000000	90.069992  
302.500000	98.059750  
303.000000	105.794189 
303.500000	112.844742 
304.000000	119.136575 
304.500000	124.956583 
305.000000	130.223204 
305.500000	134.712022 
306.000000	138.173015 
306.500000	140.921318 
307.000000	143.271924 
307.500000	145.018257 
308.000000	145.876295 
308.500000	145.913704 
309.000000	145.453265 
309.500000	144.547439 
310.000000	143.056780 
310.500000	140.990598 
311.000000	138.540734 
311.500000	135.874386 
312.000000	132.975121 
312.500000	129.844477 
313.000000	126.525000 
313.500000	123.138424 
314.000000	119.791787 
314.500000	116.438666 
315.000000	112.985651 
315.500000	109.403939 
316.000000	105.869954 
316.500000	102.545613 
317.000000	99.534484  
317.500000	96.691469  
318.000000	94.004696  
318.500000	91.365196  
319.000000	88.748007  
319.500000	86.103583  
320.000000	83.765939  
320.500000	81.666280  
321.000000	79.738795  
321.500000	77.789454  
322.000000	76.016386  
322.500000	74.308219  
323.000000	72.825893  
323.500000	71.475765  
324.000000	70.329818  
324.500000	69.212727  
325.000000	68.215416  
325.500000	67.329621  
326.000000	66.703931  
326.500000	66.269143  
327.000000	65.924409  
327.500000	65.526901  
328.000000	65.021999  
328.500000	64.625015  
329.000000	64.417795  
329.500000	64.383272  
330.000000	64.377704  
330.500000	64.371863  
331.000000	64.415068  
331.500000	64.566121  
332.000000	64.799522  
332.500000	65.063159  
333.000000	65.344583  
333.500000	65.589810  
334.000000	65.763212  
334.500000	66.015265  
335.000000	66.355954  
335.500000	66.795015  
336.000000	67.221606  
336.500000	67.649393  
337.000000	68.055128  
337.500000	68.427439  
338.000000	68.773651  
338.500000	69.088166  
339.000000	69.488772  
339.500000	69.997909  
340.000000	70.531454  
340.500000	70.913643  
341.000000	71.165484  
341.500000	71.462583  
342.000000	71.894742  
342.500000	72.441196  
343.000000	72.978409  
343.500000	73.385780  
344.000000	73.567750  
344.500000	73.743628  
345.000000	74.080060  
345.500000	74.682250  
346.000000	75.258378  
346.500000	75.659219  
347.000000	75.715825  
347.500000	75.826651  
348.000000	76.135227  
348.500000	76.651795  
349.000000	76.965393  
349.500000	77.182143  
350.000000	77.503378  
350.500000	78.022303  
351.000000	78.385401  
351.500000	78.656772  
352.000000	78.995924  
352.500000	79.524969  
353.000000	80.001681  
353.500000	80.381090  
354.000000	80.801409  
354.500000	81.289272  
355.000000	81.801840  
355.500000	82.187219  
356.000000	82.508287  
356.500000	82.741742  
357.000000	82.965128  
357.500000	83.191181  
358.000000	83.360878  
358.500000	83.665863  
359.000000	83.892651  
359.500000	84.038560  
360.000000	83.860734  
360.500000	83.824363  
361.000000	83.916810  
361.500000	84.071651  
362.000000	83.973803  
362.500000	83.808719  
363.000000	83.649121  
363.500000	83.627416  
364.000000	83.657348  
364.500000	83.702318  
365.000000	83.681015  
365.500000	83.625924  
366.000000	83.482780  
366.500000	83.215643  
367.000000	82.806409  
367.500000	82.410462  
368.000000	82.172136  
368.500000	81.859901  
369.000000	81.520272  
369.500000	81.101689  
370.000000	80.785431  
370.500000	80.493946  
371.000000	80.216189  
371.500000	79.756030  
372.000000	79.125484  
372.500000	78.370492  
373.000000	77.750431  
373.500000	77.242121  
374.000000	76.711454  
374.500000	76.046583  
375.000000	75.324659  
375.500000	74.547378  
376.000000	73.764189  
376.500000	72.979242  
377.000000	72.421272  
377.500000	72.011303  
378.000000	71.521765  
378.500000	70.788590  
379.000000	69.903310  
379.500000	69.113378  
380.000000	68.458030  
380.500000	67.828946  
381.000000	67.229439  
381.500000	66.713628  
382.000000	66.296015  
382.500000	65.968386  
383.000000	65.693348  
383.500000	65.280287  
384.000000	64.663780  
384.500000	63.969416  
385.000000	63.605712  
385.500000	63.495696  
386.000000	63.322295  
386.500000	62.844083  
387.000000	62.356265  
387.500000	61.908878  
388.000000	61.513098  
388.500000	61.122090  
389.000000	60.952250  
389.500000	60.865121  
390.000000	60.771999  

