PE FL                   SPECTRUM    ASCII       PEDS        1.60        
  -1
01#172.SP
02/03/18
04:08:11.00
02/03/18
04:10:57.00


650.000000
1









LS55
360.00
5.00
5.00
SCAN
1
20
100
100
0
100
0
1
0
1
7
ON
415 390 
1 0 0
#HDR
-1
-1
#GR
NM

0.00002384185791015625
0.0
380.000000
0.500000
541
8
96.416151
17.350000
#DATA
380.000000	40.432000 
380.500000	41.120848 
381.000000	41.439909 
381.500000	41.445643 
382.000000	41.387287 
382.500000	41.514219 
383.000000	41.808893 
383.500000	42.232106 
384.000000	42.679136 
384.500000	43.019666 
385.000000	43.237924 
385.500000	43.461454 
386.000000	43.820651 
386.500000	44.304416 
387.000000	44.801734 
387.500000	45.252636 
388.000000	45.619734 
388.500000	46.134909 
389.000000	46.718083 
389.500000	47.330272 
390.000000	47.699803 
390.500000	47.958689 
391.000000	48.306939 
391.500000	48.899166 
392.000000	49.558583 
392.500000	50.078901 
393.000000	50.512090 
393.500000	50.914833 
394.000000	51.412704 
394.500000	51.921621 
395.000000	52.509204 
395.500000	53.124136 
396.000000	53.785583 
396.500000	54.387348 
397.000000	55.081257 
397.500000	55.895848 
398.000000	56.880803 
398.500000	57.771651 
399.000000	58.539507 
399.500000	59.139893 
400.000000	59.872454 
400.500000	60.771045 
401.000000	61.850287 
401.500000	62.824780 
402.000000	63.719439 
402.500000	64.629128 
403.000000	65.589977 
403.500000	66.382848 
404.000000	66.947030 
404.500000	67.592560 
405.000000	68.506227 
405.500000	69.465431 
406.000000	70.256053 
406.500000	71.065431 
407.000000	71.989000 
407.500000	72.877651 
408.000000	73.557924 
408.500000	74.177030 
409.000000	74.825659 
409.500000	75.517227 
410.000000	76.087189 
410.500000	76.770363 
411.000000	77.530818 
411.500000	78.402590 
412.000000	79.199053 
412.500000	79.966227 
413.000000	80.563143 
413.500000	81.165704 
414.000000	81.866719 
414.500000	82.691250 
415.000000	83.369689 
415.500000	84.004287 
416.000000	84.682560 
416.500000	85.495234 
417.000000	86.183833 
417.500000	86.790749 
418.000000	87.348424 
418.500000	87.890992 
419.000000	88.277765 
419.500000	88.592098 
420.000000	88.980409 
420.500000	89.534969 
421.000000	90.209590 
421.500000	90.793325 
422.000000	91.151704 
422.500000	91.373545 
423.000000	91.552454 
423.500000	91.816287 
424.000000	92.139962 
424.500000	92.519075 
425.000000	92.752446 
425.500000	92.873606 
426.000000	93.013462 
426.500000	93.304825 
427.000000	93.690484 
427.500000	94.048553 
428.000000	94.369840 
428.500000	94.595393 
429.000000	94.843939 
429.500000	95.108803 
430.000000	95.388545 
430.500000	95.576863 
431.000000	95.719863 
431.500000	95.900159 
432.000000	96.057446 
432.500000	96.130030 
433.000000	96.190037 
433.500000	96.324159 
434.000000	96.416151 
434.500000	96.352196 
435.000000	96.124909 
435.500000	95.914174 
436.000000	95.786931 
436.500000	95.615742 
437.000000	95.301431 
437.500000	95.000916 
438.000000	94.752181 
438.500000	94.431181 
439.000000	94.078553 
439.500000	93.828143 
440.000000	93.791962 
440.500000	93.737681 
441.000000	93.490931 
441.500000	93.089749 
442.000000	92.648568 
442.500000	92.272871 
443.000000	91.908166 
443.500000	91.678696 
444.000000	91.474022 
444.500000	91.288166 
445.000000	90.914878 
445.500000	90.546378 
446.000000	90.203371 
446.500000	89.842000 
447.000000	89.428234 
447.500000	89.012893 
448.000000	88.641128 
448.500000	88.180287 
449.000000	87.585537 
449.500000	86.951795 
450.000000	86.510318 
450.500000	86.158765 
451.000000	85.890750 
451.500000	85.428136 
452.000000	84.925431 
452.500000	84.446795 
453.000000	84.141787 
453.500000	83.733143 
454.000000	83.184795 
454.500000	82.517007 
455.000000	81.996553 
455.500000	81.613818 
456.000000	81.108113 
456.500000	80.512984 
457.000000	79.938560 
457.500000	79.545553 
458.000000	79.262000 
458.500000	78.977954 
459.000000	78.651219 
459.500000	78.124143 
460.000000	77.516598 
460.500000	76.896886 
461.000000	76.408803 
461.500000	75.872606 
462.000000	75.320780 
462.500000	74.812696 
463.000000	74.497462 
463.500000	74.268946 
464.000000	73.934719 
464.500000	73.516060 
465.000000	73.118613 
465.500000	72.722371 
466.000000	72.230477 
466.500000	71.671189 
467.000000	71.255962 
467.500000	70.952098 
468.000000	70.590621 
468.500000	70.185431 
469.000000	69.861454 
469.500000	69.689553 
470.000000	69.467946 
470.500000	69.105999 
471.000000	68.589765 
471.500000	68.058742 
472.000000	67.577113 
472.500000	67.300378 
473.000000	67.217954 
473.500000	67.122431 
474.000000	66.848825 
474.500000	66.480159 
475.000000	66.149893 
475.500000	65.799242 
476.000000	65.279856 
476.500000	64.762606 
477.000000	64.421545 
477.500000	64.261992 
478.000000	64.112696 
478.500000	63.956378 
479.000000	63.861712 
479.500000	63.798439 
480.000000	63.583795 
480.500000	63.191318 
481.000000	62.834901 
481.500000	62.666446 
482.000000	62.614159 
482.500000	62.550583 
483.000000	62.397643 
483.500000	62.203568 
484.000000	61.969818 
484.500000	61.696840 
485.000000	61.376901 
485.500000	61.100318 
486.000000	60.954689 
486.500000	60.820340 
487.000000	60.463325 
487.500000	59.891265 
488.000000	59.359712 
488.500000	59.011833 
489.000000	58.804636 
489.500000	58.645871 
490.000000	58.505946 
490.500000	58.303386 
491.000000	57.983409 
491.500000	57.627060 
492.000000	57.342333 
492.500000	57.105500 
493.000000	56.852560 
493.500000	56.582484 
494.000000	56.397560 
494.500000	56.315462 
495.000000	56.214401 
495.500000	55.928310 
496.000000	55.521431 
496.500000	55.223613 
497.000000	55.051272 
497.500000	54.844045 
498.000000	54.539674 
498.500000	54.255893 
499.000000	54.197204 
499.500000	54.318143 
500.000000	54.388340 
500.500000	54.149234 
501.000000	53.701159 
501.500000	53.289886 
502.000000	53.231136 
502.500000	53.274098 
503.000000	53.247121 
503.500000	53.030681 
504.000000	52.790393 
504.500000	52.605439 
505.000000	52.586250 
505.500000	52.537530 
506.000000	52.371007 
506.500000	52.124628 
507.000000	52.010924 
507.500000	52.033553 
508.000000	52.018909 
508.500000	51.938356 
509.000000	51.804712 
509.500000	51.620666 
510.000000	51.343659 
510.500000	51.061734 
511.000000	50.854409 
511.500000	50.761939 
512.000000	50.617636 
512.500000	50.440000 
513.000000	50.286825 
513.500000	50.246318 
514.000000	50.143901 
514.500000	50.011825 
515.000000	49.856378 
515.500000	49.821681 
516.000000	49.710098 
516.500000	49.644613 
517.000000	49.584272 
517.500000	49.542363 
518.000000	49.321643 
518.500000	49.077499 
519.000000	48.965818 
519.500000	49.026325 
520.000000	49.023787 
520.500000	48.794704 
521.000000	48.488871 
521.500000	48.270727 
522.000000	48.162469 
522.500000	48.028537 
523.000000	47.904090 
523.500000	47.906257 
524.000000	47.908946 
524.500000	47.749340 
525.000000	47.536674 
525.500000	47.433219 
526.000000	47.473568 
526.500000	47.415424 
527.000000	47.312492 
527.500000	47.157598 
528.000000	47.153757 
528.500000	47.051287 
529.000000	46.871507 
529.500000	46.584113 
530.000000	46.390871 
530.500000	46.262810 
531.000000	46.169136 
531.500000	46.047833 
532.000000	45.960439 
532.500000	45.911643 
533.000000	45.821742 
533.500000	45.610689 
534.000000	45.367833 
534.500000	45.165431 
535.000000	45.041954 
535.500000	44.974128 
536.000000	44.945992 
536.500000	44.912401 
537.000000	44.777757 
537.500000	44.541492 
538.000000	44.357265 
538.500000	44.272977 
539.000000	44.172742 
539.500000	43.941742 
540.000000	43.734742 
540.500000	43.621265 
541.000000	43.596280 
541.500000	43.505265 
542.000000	43.404181 
542.500000	43.250204 
543.000000	43.073310 
543.500000	42.893318 
544.000000	42.751515 
544.500000	42.633075 
545.000000	42.397856 
545.500000	42.186689 
546.000000	42.051992 
546.500000	42.023265 
547.000000	41.958878 
547.500000	41.804984 
548.000000	41.600227 
548.500000	41.396893 
549.000000	41.311098 
549.500000	41.261196 
550.000000	41.251113 
550.500000	41.049666 
551.000000	40.701257 
551.500000	40.312386 
552.000000	40.198507 
552.500000	40.324022 
553.000000	40.470136 
553.500000	40.375606 
554.000000	40.146992 
554.500000	39.884143 
555.000000	39.737272 
555.500000	39.612848 
556.000000	39.483219 
556.500000	39.219189 
557.000000	38.876507 
557.500000	38.583568 
558.000000	38.509530 
558.500000	38.505818 
559.000000	38.404136 
559.500000	38.217977 
560.000000	38.113780 
560.500000	38.033340 
561.000000	37.907469 
561.500000	37.690674 
562.000000	37.558242 
562.500000	37.434356 
563.000000	37.302045 
563.500000	37.089500 
564.000000	36.965371 
564.500000	36.843719 
565.000000	36.767128 
565.500000	36.617363 
566.000000	36.470136 
566.500000	36.315060 
567.000000	36.191340 
567.500000	36.044840 
568.000000	35.889719 
568.500000	35.809613 
569.000000	35.757143 
569.500000	35.594803 
570.000000	35.315030 
570.500000	35.080431 
571.000000	35.002378 
571.500000	34.942333 
572.000000	34.769924 
572.500000	34.515787 
573.000000	34.351780 
573.500000	34.262931 
574.000000	34.168234 
574.500000	33.983060 
575.000000	33.816886 
575.500000	33.674409 
576.000000	33.561386 
576.500000	33.391250 
577.000000	33.280340 
577.500000	33.143901 
578.000000	33.045409 
578.500000	32.899053 
579.000000	32.799249 
579.500000	32.681962 
580.000000	32.593545 
580.500000	32.452439 
581.000000	32.283075 
581.500000	32.051333 
582.000000	31.879015 
582.500000	31.746219 
583.000000	31.601522 
583.500000	31.390628 
584.000000	31.195727 
584.500000	31.178765 
585.000000	31.255598 
585.500000	31.250803 
586.000000	31.004651 
586.500000	30.744409 
587.000000	30.572060 
587.500000	30.495250 
588.000000	30.389575 
588.500000	30.271689 
589.000000	30.119303 
589.500000	29.964280 
590.000000	29.862477 
590.500000	29.815121 
591.000000	29.756742 
591.500000	29.637234 
592.000000	29.416030 
592.500000	29.185954 
593.000000	29.014916 
593.500000	28.982939 
594.000000	28.985371 
594.500000	28.903348 
595.000000	28.747893 
595.500000	28.618621 
596.000000	28.537393 
596.500000	28.423272 
597.000000	28.275909 
597.500000	28.114537 
598.000000	28.015257 
598.500000	28.029643 
599.000000	28.046068 
599.500000	27.961462 
600.000000	27.681378 
600.500000	27.458810 
601.000000	27.330840 
601.500000	27.277113 
602.000000	27.155909 
602.500000	27.026924 
603.000000	26.888537 
603.500000	26.695181 
604.000000	26.503181 
604.500000	26.385810 
605.000000	26.372954 
605.500000	26.291212 
606.000000	26.154992 
606.500000	25.953598 
607.000000	25.778833 
607.500000	25.617181 
608.000000	25.558136 
608.500000	25.511984 
609.000000	25.462886 
609.500000	25.375765 
610.000000	25.316083 
610.500000	25.281280 
611.000000	25.195825 
611.500000	25.013234 
612.000000	24.768795 
612.500000	24.624204 
613.000000	24.499045 
613.500000	24.339750 
614.000000	24.165492 
614.500000	24.088878 
615.000000	24.129287 
615.500000	24.100810 
616.000000	23.953007 
616.500000	23.728795 
617.000000	23.554500 
617.500000	23.435409 
618.000000	23.357681 
618.500000	23.257765 
619.000000	23.179234 
619.500000	23.127113 
620.000000	23.003545 
620.500000	22.819303 
621.000000	22.630045 
621.500000	22.515590 
622.000000	22.445318 
622.500000	22.393106 
623.000000	22.325765 
623.500000	22.206742 
624.000000	22.048159 
624.500000	21.940992 
625.000000	21.911590 
625.500000	21.802507 
626.000000	21.636477 
626.500000	21.423606 
627.000000	21.318083 
627.500000	21.270189 
628.000000	21.195848 
628.500000	21.014113 
629.000000	20.802856 
629.500000	20.672136 
630.000000	20.592446 
630.500000	20.510128 
631.000000	20.385893 
631.500000	20.276227 
632.000000	20.183969 
632.500000	20.117348 
633.000000	20.110780 
633.500000	20.033613 
634.000000	19.853303 
634.500000	19.552833 
635.000000	19.404659 
635.500000	19.382636 
636.000000	19.421931 
636.500000	19.364159 
637.000000	19.266590 
637.500000	19.094181 
638.000000	18.956636 
638.500000	18.851204 
639.000000	18.778522 
639.500000	18.626037 
640.000000	18.434113 
640.500000	18.325053 
641.000000	18.313795 
641.500000	18.294113 
642.000000	18.225022 
642.500000	18.128446 
643.000000	17.987181 
643.500000	17.841189 
644.000000	17.760704 
644.500000	17.812439 
645.000000	17.858333 
645.500000	17.802333 
646.000000	17.669189 
646.500000	17.556871 
647.000000	17.473265 
647.500000	17.402136 
648.000000	17.401522 
648.500000	17.459204 
649.000000	17.501507 
649.500000	17.451098 
650.000000	17.350000 

