PE FL                   SPECTRUM    ASCII       PEDS        1.60        
  -1
01#159.SP
02/03/17
04:10:23.00
02/03/17
04:12:39.00


526.500000
1









LS55
300.00
5.00
5.00
SCAN
1
20
100
100
0
100
0
1
0
1
7
ON
570 300 
1 0 0
#HDR
-1
-1
#GR
NM

0.00002384185791015625
0.0
320.000000
0.500000
414
8
0.033643
-0.000363
#DATA
320.000000	0.022000  
320.500000	0.028553  
321.000000	0.032787  
321.500000	0.033643  
322.000000	0.031143  
322.500000	0.030393  
323.000000	0.030136  
323.500000	0.027969  
324.000000	0.020393  
324.500000	0.014212  
325.000000	0.012674  
325.500000	0.017310  
326.000000	0.020674  
326.500000	0.022583  
327.000000	0.022750  
327.500000	0.022189  
328.000000	0.020401  
328.500000	0.019143  
329.000000	0.019750  
329.500000	0.021030  
330.000000	0.021060  
330.500000	0.019053  
331.000000	0.017886  
331.500000	0.015113  
332.000000	0.010674  
332.500000	0.005537  
333.000000	0.003856  
333.500000	0.004946  
334.000000	0.006871  
334.500000	0.006878  
335.000000	0.005212  
335.500000	0.005484  
336.000000	0.008242  
336.500000	0.010462  
337.000000	0.011196  
337.500000	0.009969  
338.000000	0.007969  
338.500000	0.003977  
339.000000	0.003492  
339.500000	0.005272  
340.000000	0.006916  
340.500000	0.003568  
341.000000	0.000803  
341.500000	0.000204  
342.000000	0.001560  
342.500000	0.001598  
343.000000	0.001227  
343.500000	0.000431  
344.000000	0.000022  
344.500000	0.000287  
345.000000	0.000984  
345.500000	0.001151  
346.000000	0.000492  
346.500000	-0.000090 
347.000000	0.000765  
347.500000	0.002242  
348.000000	0.002742  
348.500000	0.001500  
349.000000	0.000219  
349.500000	-0.000363 
350.000000	-0.000113 
350.500000	0.000356  
351.000000	0.001393  
351.500000	0.002136  
352.000000	0.001765  
352.500000	0.000568  
353.000000	-0.000212 
353.500000	0.000765  
354.000000	0.002242  
354.500000	0.002742  
355.000000	0.001500  
355.500000	0.000219  
356.000000	-0.000303 
356.500000	0.000000  
357.000000	0.000000  
357.500000	0.000000  
358.000000	0.000000  
358.500000	0.000000  
359.000000	0.000000  
359.500000	0.000000  
360.000000	0.000000  
360.500000	0.000000  
361.000000	0.000000  
361.500000	0.000000  
362.000000	0.000000  
362.500000	0.000000  
363.000000	0.000000  
363.500000	0.000000  
364.000000	0.000000  
364.500000	0.000000  
365.000000	0.000000  
365.500000	-0.000060 
366.000000	-0.000053 
366.500000	0.000409  
367.000000	0.000984  
367.500000	0.001151  
368.000000	0.000613  
368.500000	0.000075  
369.000000	-0.000121 
369.500000	0.000000  
370.000000	0.000000  
370.500000	0.000000  
371.000000	0.000000  
371.500000	0.000000  
372.000000	0.000000  
372.500000	0.000000  
373.000000	0.000000  
373.500000	0.000000  
374.000000	0.000000  
374.500000	0.000000  
375.000000	0.000000  
375.500000	0.000000  
376.000000	0.000000  
376.500000	0.000000  
377.000000	0.000000  
377.500000	0.000000  
378.000000	0.000000  
378.500000	0.000000  
379.000000	0.000000  
379.500000	0.000000  
380.000000	0.000000  
380.500000	0.000000  
381.000000	0.000000  
381.500000	0.000000  
382.000000	0.000000  
382.500000	0.000000  
383.000000	0.000000  
383.500000	0.000000  
384.000000	0.000000  
384.500000	0.000000  
385.000000	0.000000  
385.500000	0.000000  
386.000000	0.000000  
386.500000	0.000000  
387.000000	0.000000  
387.500000	0.000000  
388.000000	0.000000  
388.500000	0.000000  
389.000000	0.000000  
389.500000	0.000000  
390.000000	0.000000  
390.500000	0.000000  
391.000000	0.000000  
391.500000	0.000000  
392.000000	0.000000  
392.500000	0.000000  
393.000000	0.000000  
393.500000	0.000000  
394.000000	0.000000  
394.500000	0.000000  
395.000000	0.000000  
395.500000	0.000000  
396.000000	-0.000060 
396.500000	-0.000053 
397.000000	0.000409  
397.500000	0.000984  
398.000000	0.001151  
398.500000	0.000613  
399.000000	0.000075  
399.500000	-0.000121 
400.000000	0.000000  
400.500000	0.000000  
401.000000	0.000000  
401.500000	0.000000  
402.000000	0.000000  
402.500000	0.000000  
403.000000	0.000000  
403.500000	-0.000060 
404.000000	-0.000053 
404.500000	0.000409  
405.000000	0.000984  
405.500000	0.001151  
406.000000	0.000613  
406.500000	0.000075  
407.000000	-0.000121 
407.500000	0.000000  
408.000000	0.000000  
408.500000	0.000000  
409.000000	0.000000  
409.500000	-0.000060 
410.000000	-0.000053 
410.500000	0.000409  
411.000000	0.000984  
411.500000	0.001151  
412.000000	0.000613  
412.500000	0.000075  
413.000000	-0.000121 
413.500000	0.000000  
414.000000	0.000000  
414.500000	0.000000  
415.000000	0.000000  
415.500000	0.000000  
416.000000	0.000000  
416.500000	-0.000060 
417.000000	-0.000053 
417.500000	0.000409  
418.000000	0.000984  
418.500000	0.001090  
419.000000	0.000499  
419.500000	0.000431  
420.000000	0.001272  
420.500000	0.002136  
421.000000	0.001704  
421.500000	0.000636  
422.000000	0.000363  
422.500000	0.000863  
423.000000	0.001090  
423.500000	0.000560  
424.000000	0.000484  
424.500000	0.000863  
425.000000	0.001151  
425.500000	0.000613  
426.000000	-0.000045 
426.500000	-0.000348 
427.000000	0.000833  
427.500000	0.002590  
428.000000	0.003674  
428.500000	0.003060  
429.000000	0.001818  
429.500000	0.000924  
430.000000	0.000492  
430.500000	0.000075  
431.000000	-0.000121 
431.500000	0.000000  
432.000000	0.000000  
432.500000	0.000000  
433.000000	0.000000  
433.500000	0.000000  
434.000000	-0.000060 
434.500000	-0.000053 
435.000000	0.000409  
435.500000	0.000863  
436.000000	0.000924  
436.500000	0.001386  
437.000000	0.002674  
437.500000	0.004015  
438.000000	0.003636  
438.500000	0.001984  
439.000000	0.000386  
439.500000	-0.000045 
440.000000	-0.000121 
440.500000	0.000000  
441.000000	0.000000  
441.500000	0.000000  
442.000000	0.000000  
442.500000	0.000000  
443.000000	0.000000  
443.500000	0.000000  
444.000000	0.000000  
444.500000	0.000000  
445.000000	0.000000  
445.500000	0.000000  
446.000000	0.000000  
446.500000	-0.000121 
447.000000	-0.000166 
447.500000	0.000886  
448.000000	0.002181  
448.500000	0.002689  
449.000000	0.001909  
449.500000	0.001143  
450.000000	0.000795  
450.500000	0.001022  
451.000000	0.001060  
451.500000	0.001030  
452.000000	0.000613  
452.500000	0.000075  
453.000000	-0.000121 
453.500000	0.000000  
454.000000	0.000000  
454.500000	0.000000  
455.000000	-0.000060 
455.500000	-0.000053 
456.000000	0.000409  
456.500000	0.000984  
457.000000	0.001151  
457.500000	0.000613  
458.000000	0.000075  
458.500000	-0.000121 
459.000000	0.000000  
459.500000	0.000000  
460.000000	0.000000  
460.500000	0.000000  
461.000000	0.000000  
461.500000	0.000000  
462.000000	0.000000  
462.500000	0.000000  
463.000000	0.000000  
463.500000	0.000000  
464.000000	0.000000  
464.500000	0.000000  
465.000000	0.000000  
465.500000	0.000000  
466.000000	0.000000  
466.500000	0.000000  
467.000000	0.000000  
467.500000	0.000000  
468.000000	0.000000  
468.500000	0.000000  
469.000000	0.000000  
469.500000	0.000000  
470.000000	0.000000  
470.500000	0.000000  
471.000000	0.000000  
471.500000	0.000000  
472.000000	0.000000  
472.500000	0.000000  
473.000000	0.000000  
473.500000	0.000000  
474.000000	0.000000  
474.500000	0.000000  
475.000000	0.000000  
475.500000	0.000000  
476.000000	0.000000  
476.500000	0.000000  
477.000000	0.000000  
477.500000	0.000000  
478.000000	0.000000  
478.500000	0.000000  
479.000000	0.000000  
479.500000	0.000000  
480.000000	0.000000  
480.500000	0.000000  
481.000000	0.000000  
481.500000	0.000000  
482.000000	0.000000  
482.500000	0.000000  
483.000000	0.000000  
483.500000	0.000000  
484.000000	0.000000  
484.500000	0.000000  
485.000000	-0.000060 
485.500000	-0.000053 
486.000000	0.000409  
486.500000	0.000984  
487.000000	0.001151  
487.500000	0.000613  
488.000000	0.000075  
488.500000	-0.000121 
489.000000	0.000000  
489.500000	0.000000  
490.000000	0.000000  
490.500000	0.000000  
491.000000	0.000000  
491.500000	0.000000  
492.000000	0.000000  
492.500000	0.000000  
493.000000	0.000000  
493.500000	0.000000  
494.000000	0.000000  
494.500000	0.000000  
495.000000	0.000000  
495.500000	0.000000  
496.000000	0.000000  
496.500000	0.000000  
497.000000	0.000000  
497.500000	0.000000  
498.000000	0.000000  
498.500000	0.000000  
499.000000	0.000000  
499.500000	0.000000  
500.000000	0.000000  
500.500000	0.000000  
501.000000	0.000000  
501.500000	0.000000  
502.000000	0.000000  
502.500000	0.000000  
503.000000	0.000000  
503.500000	0.000000  
504.000000	0.000000  
504.500000	0.000000  
505.000000	0.000000  
505.500000	0.000000  
506.000000	0.000000  
506.500000	0.000000  
507.000000	0.000000  
507.500000	0.000000  
508.000000	0.000000  
508.500000	0.000000  
509.000000	0.000000  
509.500000	0.000000  
510.000000	0.000000  
510.500000	-0.000060 
511.000000	-0.000053 
511.500000	0.000409  
512.000000	0.000984  
512.500000	0.001151  
513.000000	0.000613  
513.500000	0.000075  
514.000000	-0.000121 
514.500000	0.000000  
515.000000	0.000000  
515.500000	0.000000  
516.000000	0.000000  
516.500000	0.000000  
517.000000	0.000000  
517.500000	0.000000  
518.000000	0.000000  
518.500000	0.000000  
519.000000	0.000000  
519.500000	0.000000  
520.000000	0.000000  
520.500000	0.000000  
521.000000	0.000000  
521.500000	0.000000  
522.000000	0.000000  
522.500000	0.000000  
523.000000	0.000000  
523.500000	0.000000  
524.000000	0.000000  
524.500000	0.000000  
525.000000	0.000000  
525.500000	0.000000  
526.000000	0.000000  
526.500000	0.000000  

