PE FL                   SPECTRUM    ASCII       PEDS        1.60        
  -1
01#170.SP
02/03/18
04:04:27.00
02/03/18
04:05:07.00


253.500000
1









LS55
415.00
5.00
5.00
SCAN
1
20
100
100
0
100
0
0
0
1
7
ON
580 310 
1 0 0
#HDR
-1
-1
#GR
NM

0.00002384185791015625
0.0
200.000000
0.500000
108
8
1014.785386
15.878689
#DATA
200.000000	63.488999   
200.500000	94.581742   
201.000000	173.797227  
201.500000	327.987757  
202.000000	553.870825  
202.500000	787.993318  
203.000000	954.785621  
203.500000	1014.505030 
204.000000	1012.192212 
204.500000	999.999000  
205.000000	999.999000  
205.500000	999.999000  
206.000000	999.999000  
206.500000	1003.477606 
207.000000	1014.785386 
207.500000	992.543189  
208.000000	896.678310  
208.500000	719.097159  
209.000000	523.717181  
209.500000	357.313242  
210.000000	249.327598  
210.500000	180.605000  
211.000000	142.555522  
211.500000	110.017257  
212.000000	80.494484   
212.500000	57.192007   
213.000000	45.718530   
213.500000	39.529378   
214.000000	36.425136   
214.500000	35.435484   
215.000000	34.862310   
215.500000	34.173045   
216.000000	33.158765   
216.500000	32.183977   
217.000000	31.352666   
217.500000	30.544530   
218.000000	29.502712   
218.500000	28.340734   
219.000000	27.423984   
219.500000	26.832128   
220.000000	26.379060   
220.500000	25.736553   
221.000000	24.963469   
221.500000	24.401424   
222.000000	23.834257   
222.500000	23.336348   
223.000000	22.618939   
223.500000	22.100810   
224.000000	21.663431   
224.500000	21.477757   
225.000000	21.153590   
225.500000	20.830969   
226.000000	20.404893   
226.500000	19.960136   
227.000000	19.551446   
227.500000	19.237424   
228.000000	19.035257   
228.500000	18.865007   
229.000000	18.655189   
229.500000	18.321636   
230.000000	18.066484   
230.500000	18.020803   
231.000000	18.171734   
231.500000	18.327553   
232.000000	18.478477   
232.500000	18.614696   
233.000000	18.840068   
233.500000	19.042856   
234.000000	19.349416   
234.500000	19.679371   
235.000000	19.933265   
235.500000	19.937007   
236.000000	19.680992   
236.500000	19.285537   
237.000000	18.871840   
237.500000	18.517734   
238.000000	18.135780   
238.500000	17.849886   
239.000000	17.597712   
239.500000	17.404636   
240.000000	17.161015   
240.500000	16.959113   
241.000000	16.749212   
241.500000	16.548075   
242.000000	16.312295   
242.500000	16.225712   
243.000000	16.262742   
243.500000	16.354893   
244.000000	16.380901   
244.500000	16.364977   
245.000000	16.334553   
245.500000	16.306621   
246.000000	16.251833   
246.500000	16.116689   
247.000000	15.976992   
247.500000	15.878689   
248.000000	15.942219   
248.500000	16.077643   
249.000000	16.301810   
249.500000	16.516954   
250.000000	16.755666   
250.500000	16.917742   
251.000000	17.117439   
251.500000	17.345689   
252.000000	17.597727   
252.500000	17.783492   
253.000000	18.025280   
253.500000	18.379000   

